{'altitude': np.float64(7.598084098432719), 'velocity': np.float64(4.850950521484088e-05), 'num_rockets': 8, 'volume': 150, 'parachute': {'deployed': True, 'ejected': True, 'diameter': np.float64(14.000047637258161), 'Cd': 0.615, 'cost_per_A': 1000.0, 'mass': 185.0}, 'heat_shield': {'ejected': True, 'mass': 225.0, 'diameter': 4.5, 'Cd': 0.35}, 'rocket': {'on': True, 'structure_mass': 8.0, 'initial_fuel_mass': np.float64(134.4338652733395), 'cost_per_kg': 1500, 'fuel_mass': np.float64(63.01190289600543), 'effective_exhaust_velocity': 4500.0, 'max_thrust': 3100.0, 'min_thrust': 40.0}, 'speed_control': {'on': False, 'Kp': 2000, 'Kd': 20, 'Ki': 50, 'target_velocity': -3.0}, 'position_control': {'on': True, 'Kp': 2000, 'Kd': 1000, 'Ki': 50, 'target_altitude': 7.6}, 'sky_crane': {'on': False, 'danger_altitude': 4.5, 'danger_speed': -1.0, 'mass': 35.0, 'area': 16.0, 'Cd': 0.9, 'max_cable': 7.6, 'velocity': -0.1}, 'rover': {'wheel_assembly': {'wheel': {'radius': np.float64(0.6999999820084873), 'mass': 1}, 'speed_reducer': {'type': 'reverted', 'diam_pinion': 0.04, 'diam_gear': np.float64(0.05010770696066756), 'mass': 1.5}, 'motor': {'torque_stall': 123.75, 'torque_noload': 0, 'speed_noload': 7.7, 'mass': 5.0, 'effcy_tau': array([  0.      ,   9.91875 ,  19.8375  ,  39.675   ,  74.390625,
       163.659375]), 'effcy': array([0.      , 0.7935  , 0.991875, 0.965425, 0.727375, 0.066125]), 'type': 'speed', 'cost': 300000.0}}, 'chassis': {'mass': np.float64(250.00001979035534), 'type': 'magnesium', 'specific_strength': 250, 'strength': 164750}, 'science_payload': {'mass': 75}, 'power_subsys': {'mass': 90, 'battery': {'battery_type': 'NiCD', 'num_modules': 10, 'mass': 6.69, 'cost': 250000, 'capacity': 90600.0}}, 'on_ground': True, 'telemetry': {'Time': array([0.00000000e+00, 7.98098593e-05, 1.59619719e-04, 9.57718311e-04,
       1.75581690e-03, 4.52852515e-03, 7.30123339e-03, 1.00739416e-02,
       2.11051524e-02, 3.21363631e-02, 4.31675739e-02, 7.96064168e-02,
       1.16045260e-01, 1.52484103e-01, 1.88922946e-01, 3.15356127e-01,
       4.41789308e-01, 5.68222489e-01, 6.94655670e-01, 1.02253824e+00,
       1.35042082e+00, 1.67830339e+00, 2.00618597e+00, 2.33406854e+00,
       2.77361449e+00, 3.21316044e+00, 3.65270639e+00, 4.09225234e+00,
       4.53179830e+00, 5.26500709e+00, 5.99821588e+00, 6.73142467e+00,
       7.46463347e+00, 8.46463347e+00, 9.46463347e+00, 1.04646335e+01,
       1.14646335e+01, 1.24646335e+01, 1.34646335e+01, 1.44646335e+01,
       1.54646335e+01, 1.64646335e+01, 1.74646335e+01, 1.84646335e+01,
       1.94646335e+01, 2.04646335e+01, 2.14646335e+01, 2.24646335e+01,
       2.34646335e+01, 2.44646335e+01, 2.54646335e+01, 2.64646335e+01,
       2.74646335e+01, 2.84646335e+01, 2.94646335e+01, 3.04646335e+01,
       3.14646335e+01, 3.24646335e+01, 3.34646335e+01, 3.44646335e+01,
       3.54646335e+01, 3.64646335e+01, 3.74646335e+01, 3.84646335e+01,
       3.94646335e+01, 4.04646335e+01, 4.14646335e+01, 4.24646335e+01,
       4.34646335e+01, 4.44646335e+01, 4.54646335e+01, 4.64646335e+01,
       4.74646335e+01, 4.84646335e+01, 4.94646335e+01, 5.04646335e+01,
       5.14646335e+01, 5.24646335e+01, 5.34646335e+01, 5.44646335e+01,
       5.54646335e+01, 5.64646335e+01, 5.74646335e+01, 5.84646335e+01,
       5.94646335e+01, 6.04646335e+01, 6.14646335e+01, 6.24646335e+01,
       6.34646335e+01, 6.44646335e+01, 6.54646335e+01, 6.64646335e+01,
       6.74646335e+01, 6.84646335e+01, 6.94646335e+01, 7.04646335e+01,
       7.14646335e+01, 7.24646335e+01, 7.34646335e+01, 7.44646335e+01,
       7.54646335e+01, 7.64646335e+01, 7.74646335e+01, 7.84646335e+01,
       7.94646335e+01, 8.04646335e+01, 8.14646335e+01, 8.24646335e+01,
       8.34646335e+01, 8.44646335e+01, 8.54646335e+01, 8.64646335e+01,
       8.74646335e+01, 8.84646335e+01, 8.94646335e+01, 9.04646335e+01,
       9.14646335e+01, 9.24646335e+01, 9.34646335e+01, 9.44646335e+01,
       9.54646335e+01, 9.64646335e+01, 9.74646335e+01, 9.84646335e+01,
       9.94646335e+01, 1.00464633e+02, 1.01464633e+02, 1.02464633e+02,
       1.03464633e+02, 1.04464633e+02, 1.05464633e+02, 1.06464633e+02,
       1.07464633e+02, 1.08464633e+02, 1.09464633e+02, 1.10464633e+02,
       1.11464633e+02, 1.12464633e+02, 1.13464633e+02, 1.14464633e+02,
       1.15464633e+02, 1.16464633e+02, 1.17464633e+02, 1.18464633e+02,
       1.19464633e+02, 1.20464633e+02, 1.21464633e+02, 1.22464633e+02,
       1.23464633e+02, 1.24464633e+02, 1.25464633e+02, 1.26464633e+02,
       1.27464633e+02, 1.28464633e+02, 1.29464633e+02, 1.30464633e+02,
       1.31464633e+02, 1.32464633e+02, 1.33464633e+02, 1.34464633e+02,
       1.35464633e+02, 1.36464633e+02, 1.37464633e+02, 1.38464633e+02,
       1.39464633e+02, 1.40464633e+02, 1.41464633e+02, 1.42464633e+02,
       1.43464633e+02, 1.44464633e+02, 1.45464633e+02, 1.46464633e+02,
       1.47464633e+02, 1.48464633e+02, 1.49464633e+02, 1.50464633e+02,
       1.51464633e+02, 1.52464633e+02, 1.53464633e+02, 1.54464633e+02,
       1.55464633e+02, 1.56464633e+02, 1.57464633e+02, 1.58464633e+02,
       1.59464633e+02, 1.60464633e+02, 1.61464633e+02, 1.62464633e+02,
       1.63464633e+02, 1.64464633e+02, 1.65464633e+02, 1.66464633e+02,
       1.67464633e+02, 1.68464633e+02, 1.69464633e+02, 1.70464633e+02,
       1.71464633e+02, 1.72464633e+02, 1.73464633e+02, 1.74464633e+02,
       1.75464633e+02, 1.76464633e+02, 1.77464633e+02, 1.78464633e+02,
       1.79464633e+02, 1.80464633e+02, 1.81464633e+02, 1.82464633e+02,
       1.83464633e+02, 1.84464633e+02, 1.85464633e+02, 1.86464633e+02,
       1.87464633e+02, 1.88464633e+02, 1.89464633e+02, 1.90464633e+02,
       1.91464633e+02, 1.92464633e+02, 1.93464633e+02, 1.94464633e+02,
       1.95464633e+02, 1.96464633e+02, 1.97464633e+02, 1.98464633e+02,
       1.99464633e+02, 2.00464633e+02, 2.01464633e+02, 2.02464633e+02,
       2.03464633e+02, 2.04464633e+02, 2.05464633e+02, 2.06464633e+02,
       2.07464633e+02, 2.08464633e+02, 2.09464633e+02, 2.10464633e+02,
       2.11464633e+02, 2.12464633e+02, 2.13464633e+02, 2.14464633e+02,
       2.15464633e+02, 2.16464633e+02, 2.17464633e+02, 2.18464633e+02,
       2.19464633e+02, 2.20464633e+02, 2.21464633e+02, 2.22464633e+02,
       2.23464633e+02, 2.24464633e+02, 2.25464633e+02, 2.26464633e+02,
       2.27464633e+02, 2.28464633e+02, 2.29464633e+02, 2.30464633e+02,
       2.31464633e+02, 2.32464633e+02, 2.33464633e+02, 2.34464633e+02,
       2.35464633e+02, 2.36464633e+02, 2.37464633e+02, 2.38464633e+02,
       2.39464633e+02, 2.40464633e+02, 2.41464633e+02, 2.42464633e+02,
       2.43464633e+02, 2.44464633e+02, 2.45464633e+02, 2.46464633e+02,
       2.47464633e+02, 2.48464633e+02, 2.49464633e+02, 2.50464633e+02,
       2.51464633e+02, 2.52464633e+02, 2.53464633e+02, 2.54464633e+02,
       2.55464633e+02, 2.56464633e+02, 2.57464633e+02, 2.58464633e+02,
       2.59464633e+02, 2.60464633e+02, 2.61464633e+02, 2.62464633e+02,
       2.63464633e+02, 2.64464633e+02, 2.65464633e+02, 2.66464633e+02,
       2.67464633e+02, 2.68464633e+02, 2.69464633e+02, 2.70464633e+02,
       2.71464633e+02, 2.72464633e+02, 2.73464633e+02, 2.74464633e+02,
       2.75464633e+02, 2.76464633e+02, 2.77464633e+02, 2.78464633e+02,
       2.79464633e+02, 2.80464633e+02, 2.81464633e+02, 2.82464633e+02,
       2.83464633e+02, 2.84464633e+02, 2.85464633e+02, 2.86464633e+02,
       2.87464633e+02, 2.88464633e+02, 2.89464633e+02, 2.90464633e+02,
       2.91464633e+02, 2.92464633e+02, 2.93464633e+02, 2.94464633e+02,
       2.95464633e+02, 2.96464633e+02, 2.97464633e+02, 2.98464633e+02,
       2.99464633e+02, 3.00464633e+02, 3.01464633e+02, 3.02464633e+02,
       3.03464633e+02, 3.04464633e+02, 3.05464633e+02, 3.06464633e+02,
       3.07464633e+02, 3.08464633e+02, 3.09464633e+02, 3.10464633e+02,
       3.11464633e+02, 3.12464633e+02, 3.13464633e+02, 3.14464633e+02,
       3.15464633e+02, 3.16464633e+02, 3.17464633e+02, 3.18464633e+02,
       3.19464633e+02, 3.20464633e+02, 3.21464633e+02, 3.22464633e+02,
       3.23464633e+02, 3.24464633e+02, 3.25464633e+02, 3.26464633e+02,
       3.27464633e+02, 3.28464633e+02, 3.29464633e+02, 3.30464633e+02,
       3.31464633e+02, 3.32464633e+02, 3.33464633e+02, 3.34464633e+02,
       3.35464633e+02, 3.36464633e+02, 3.37464633e+02, 3.38464633e+02,
       3.39464633e+02, 3.40464633e+02, 3.41464633e+02, 3.42464633e+02,
       3.43464633e+02, 3.44464633e+02, 3.45464633e+02, 3.46464633e+02,
       3.47464633e+02, 3.48464633e+02, 3.49097131e+02]), 'completion_time': np.float64(349.0971312940167), 'velocity': array([0.3125    , 0.31267718, 0.31285435, 0.3146248 , 0.31639381,
       0.32252923, 0.32864757, 0.3347485 , 0.35884867, 0.38267539,
       0.40623156, 0.48215925, 0.55527768, 0.62569384, 0.69351041,
       0.90997304, 1.1000326 , 1.26701878, 1.41381985, 1.71787324,
       1.93726082, 2.09635484, 2.21264482, 2.29874877, 2.38222306,
       2.44141445, 2.4849888 , 2.5186338 , 2.54608178, 2.58331538,
       2.61541633, 2.64493112, 2.67265207, 2.70830533, 2.74199924,
       2.77402929, 2.80445783, 2.83325652, 2.86038113, 2.88579698,
       2.90947584, 2.93139852, 2.95155485, 2.96994233, 2.98656549,
       3.00143587, 3.01457191, 3.02599855, 3.03574735, 3.04385578,
       3.05036653, 3.05532716, 3.05878986, 3.060811  , 3.06145056,
       3.06077163, 3.05884002, 3.05572385, 3.05149294, 3.04621855,
       3.039973  , 3.03282925, 3.02486058, 3.01614018, 3.00674093,
       2.99673512, 2.98619418, 2.97518853, 2.96378731, 2.95205828,
       2.94006769, 2.92788015, 2.91555855, 2.90316409, 2.89075606,
       2.87839191, 2.86612735, 2.85401635, 2.8421111 , 2.83046212,
       2.81911833, 2.80812714, 2.79753454, 2.78738524, 2.77772276,
       2.76858959, 2.76002734, 2.75207685, 2.74477839, 2.73817183,
       2.73229679, 2.72719284, 2.72289971, 2.71945749, 2.71690684,
       2.7152892 , 2.71464239, 2.71497876, 2.71627459, 2.71849257,
       2.72159005, 2.72552574, 2.73025411, 2.73573047, 2.74191259,
       2.7487591 , 2.75622812, 2.76427698, 2.7728625 , 2.78194104,
       2.79146824, 2.80139889, 2.8116867 , 2.82228424, 2.83314281,
       2.84421233, 2.8554413 , 2.8667767 , 2.87816385, 2.88954637,
       2.9008663 , 2.91206396, 2.92307803, 2.93384548, 2.94430169,
       2.9543805 , 2.96401432, 2.97313424, 2.98167017, 2.989551  ,
       2.99670484, 3.00306049, 3.00856488, 3.01319708, 3.01696119,
       3.01987156, 3.02194537, 3.02319796, 3.02364712, 3.02331146,
       3.02221289, 3.02037405, 3.01781727, 3.0145652 , 3.01064122,
       3.00606949, 3.00087464, 2.99508159, 2.98871554, 2.98180189,
       2.97436617, 2.96643403, 2.95803108, 2.94918292, 2.939915  ,
       2.93025266, 2.92022098, 2.90984483, 2.89914874, 2.88815695,
       2.87689327, 2.86538115, 2.85364358, 2.84170309, 2.82958174,
       2.8173017 , 2.80488834, 2.79237117, 2.77978183, 2.76715184,
       2.75451166, 2.7418907 , 2.72931746, 2.71681956, 2.70442371,
       2.69215565, 2.68004018, 2.66810117, 2.65636168, 2.64484397,
       2.63356953, 2.62255906, 2.61183259, 2.6014095 , 2.59130856,
       2.58154799, 2.5721455 , 2.56311837, 2.55448347, 2.54625731,
       2.53845613, 2.5310959 , 2.52419246, 2.51776151, 2.5118187 ,
       2.50637966, 2.50146012, 2.49707592, 2.4932431 , 2.48997795,
       2.4872971 , 2.48521759, 2.48375693, 2.48293221, 2.482752  ,
       2.48321037, 2.48429407, 2.48598736, 2.48827413, 2.49113865,
       2.49456567, 2.49854113, 2.50304987, 2.50807715, 2.51360915,
       2.51963252, 2.52613388, 2.53309981, 2.54051686, 2.5483716 ,
       2.55665057, 2.56534019, 2.57442671, 2.58389615, 2.5937343 ,
       2.60392661, 2.6144582 , 2.62531378, 2.63647761, 2.64793348,
       2.65966462, 2.6716537 , 2.68388278, 2.69633325, 2.7089858 ,
       2.72182043, 2.73481633, 2.74795187, 2.76120461, 2.77455127,
       2.78796767, 2.80142872, 2.81490992, 2.82839124, 2.84185796,
       2.85529776, 2.86869792, 2.8820452 , 2.89532618, 2.90852728,
       2.92163458, 2.93463373, 2.94750996, 2.96024817, 2.97283284,
       2.98524812, 2.9974778 , 3.00950534, 3.02131387, 3.03288618,
       3.04420478, 3.05525189, 3.06600947, 3.07645923, 3.08658264,
       3.096361  , 3.1057754 , 3.11480679, 3.12343603, 3.13164384,
       3.13941092, 3.14671792, 3.15354551, 3.15987442, 3.16568545,
       3.17096079, 3.17569065, 3.17987595, 3.18352542, 3.18664823,
       3.1892547 , 3.19135535, 3.19296245, 3.19408861, 3.1947463 ,
       3.19494807, 3.19470694, 3.19403628, 3.19294977, 3.19146127,
       3.18958483, 3.18733463, 3.18472502, 3.18177046, 3.1784855 ,
       3.17488474, 3.17098282, 3.16679442, 3.16233421, 3.15761683,
       3.1526569 , 3.14746896, 3.14206751, 3.13646694, 3.13068155,
       3.12472551, 3.11861287, 3.11235738, 3.10597221, 3.09947005,
       3.09286324, 3.08616397, 3.07938427, 3.07253601, 3.06563087,
       3.05868037, 3.05169584, 3.04468843, 3.03766913, 3.03064874,
       3.02363785, 3.01664694, 3.00968624, 3.00276586, 2.99589571,
       2.98908552, 2.98234487, 2.97568317, 2.96910968, 2.96263349,
       2.95626355, 2.95000866, 2.94387748, 2.93787856, 2.9320203 ,
       2.92631101, 2.92075885, 2.91537193, 2.9101582 , 2.90512559,
       2.90028191, 2.89563493, 2.89119234, 2.88696179, 2.8829509 ,
       2.87916726, 2.87561841, 2.87231194, 2.86925539, 2.86645636,
       2.86392243, 2.86166127, 2.85968057, 2.85798808, 2.85659167,
       2.85549924, 2.85471886, 2.85425866, 2.85412695, 2.85433217,
       2.85488293, 2.85578802, 2.85705644, 2.85869739, 2.86072032,
       2.86313494, 2.86595121, 2.8691794 , 2.8728301 , 2.87691424,
       2.88144311, 2.88642837, 2.8918821 , 2.89781684, 2.90182477]), 'position': array([0.00000000e+00, 2.49525144e-05, 4.99188243e-05, 3.00795856e-04,
       5.53053839e-04, 1.43946635e-03, 2.34237437e-03, 3.26208309e-03,
       7.08760297e-03, 1.11772352e-02, 1.55282349e-02, 3.17216735e-02,
       5.06317424e-02, 7.21571311e-02, 9.62006035e-02, 1.97905795e-01,
       3.25292151e-01, 4.75206297e-01, 6.44912704e-01, 1.16075399e+00,
       1.76130681e+00, 2.42346741e+00, 3.13064388e+00, 3.87085347e+00,
       4.90032071e+00, 5.96061683e+00, 7.04343723e+00, 8.14329431e+00,
       9.25654949e+00, 1.11381374e+01, 1.30447279e+01, 1.49733810e+01,
       1.69227971e+01, 1.96130802e+01, 2.23380618e+01, 2.50959419e+01,
       2.78850585e+01, 3.07037827e+01, 3.35504618e+01, 3.64235518e+01,
       3.93213071e+01, 4.22419043e+01, 4.51835390e+01, 4.81444367e+01,
       5.11228363e+01, 5.41169828e+01, 5.71251326e+01, 6.01455611e+01,
       6.31765734e+01, 6.62165103e+01, 6.92637531e+01, 7.23167275e+01,
       7.53739092e+01, 7.84338278e+01, 8.14950715e+01, 8.45562900e+01,
       8.76161977e+01, 9.06735792e+01, 9.37272841e+01, 9.67762313e+01,
       9.98194125e+01, 1.02855893e+02, 1.05884811e+02, 1.08905378e+02,
       1.11916879e+02, 1.14918672e+02, 1.17910185e+02, 1.20890919e+02,
       1.23860444e+02, 1.26818398e+02, 1.29764486e+02, 1.32698480e+02,
       1.35620214e+02, 1.38529582e+02, 1.41426541e+02, 1.44311108e+02,
       1.47183357e+02, 1.50043414e+02, 1.52891458e+02, 1.55727721e+02,
       1.58552484e+02, 1.61366075e+02, 1.64168871e+02, 1.66961292e+02,
       1.69743803e+02, 1.72516914e+02, 1.75281173e+02, 1.78037172e+02,
       1.80785544e+02, 1.83526960e+02, 1.86262131e+02, 1.88991810e+02,
       1.91716787e+02, 1.94437893e+02, 1.97156002e+02, 1.99872024e+02,
       2.02586911e+02, 2.05301640e+02, 2.08017280e+02, 2.10734723e+02,
       2.13454835e+02, 2.16178392e+02, 2.18906224e+02, 2.21639143e+02,
       2.24377898e+02, 2.27123176e+02, 2.29875616e+02, 2.32635819e+02,
       2.35404341e+02, 2.38181699e+02, 2.40968364e+02, 2.43764761e+02,
       2.46571271e+02, 2.49388228e+02, 2.52215917e+02, 2.55054574e+02,
       2.57904385e+02, 2.60765484e+02, 2.63637952e+02, 2.66521810e+02,
       2.69417024e+02, 2.72323502e+02, 2.75241090e+02, 2.78169575e+02,
       2.81108677e+02, 2.84058052e+02, 2.87017289e+02, 2.89985909e+02,
       2.92963363e+02, 2.95949031e+02, 2.98942222e+02, 3.01942175e+02,
       3.04948059e+02, 3.07959014e+02, 3.10974168e+02, 3.13992657e+02,
       3.17013554e+02, 3.20036072e+02, 3.23059430e+02, 3.26082910e+02,
       3.29105726e+02, 3.32127090e+02, 3.35146252e+02, 3.38162503e+02,
       3.41175163e+02, 3.44183573e+02, 3.47187098e+02, 3.50185128e+02,
       3.53177076e+02, 3.56162381e+02, 3.59140510e+02, 3.62110953e+02,
       3.65073227e+02, 3.68026872e+02, 3.70971458e+02, 3.73906576e+02,
       3.76831845e+02, 3.79746908e+02, 3.82651433e+02, 3.85545111e+02,
       3.88427661e+02, 3.91298820e+02, 3.94158352e+02, 3.97006044e+02,
       3.99841703e+02, 4.02665159e+02, 4.05476266e+02, 4.08274907e+02,
       4.11060991e+02, 4.13834463e+02, 4.16595298e+02, 4.19343499e+02,
       4.22079101e+02, 4.24802164e+02, 4.27512779e+02, 4.30211058e+02,
       4.32897142e+02, 4.35571197e+02, 4.38233411e+02, 4.40883994e+02,
       4.43523180e+02, 4.46151221e+02, 4.48768392e+02, 4.51374987e+02,
       4.53971319e+02, 4.56557719e+02, 4.59134536e+02, 4.61702138e+02,
       4.64260907e+02, 4.66811245e+02, 4.69353567e+02, 4.71888307e+02,
       4.74415914e+02, 4.76936852e+02, 4.79451603e+02, 4.81960661e+02,
       4.84464538e+02, 4.86963763e+02, 4.89458877e+02, 4.91950441e+02,
       4.94439031e+02, 4.96925239e+02, 4.99409676e+02, 5.01892969e+02,
       5.04375757e+02, 5.06858749e+02, 5.09342542e+02, 5.11827732e+02,
       5.14314912e+02, 5.16804666e+02, 5.19297565e+02, 5.21794118e+02,
       5.24294875e+02, 5.26800390e+02, 5.29311187e+02, 5.31827766e+02,
       5.34350609e+02, 5.36880187e+02, 5.39416957e+02, 5.41961364e+02,
       5.44513839e+02, 5.47074799e+02, 5.49644649e+02, 5.52223777e+02,
       5.54812561e+02, 5.57411361e+02, 5.60020524e+02, 5.62640382e+02,
       5.65271251e+02, 5.67913432e+02, 5.70567207e+02, 5.73232843e+02,
       5.75910591e+02, 5.78600679e+02, 5.81303321e+02, 5.84018708e+02,
       5.86747014e+02, 5.89488387e+02, 5.92242957e+02, 5.95010828e+02,
       5.97792082e+02, 6.00586778e+02, 6.03394946e+02, 6.06216598e+02,
       6.09051725e+02, 6.11900306e+02, 6.14762306e+02, 6.17637681e+02,
       6.20526372e+02, 6.23428304e+02, 6.26343392e+02, 6.29271535e+02,
       6.32212616e+02, 6.35166506e+02, 6.38133060e+02, 6.41112115e+02,
       6.44103495e+02, 6.47107004e+02, 6.50122432e+02, 6.53149552e+02,
       6.56188120e+02, 6.59237871e+02, 6.62298527e+02, 6.65369788e+02,
       6.68451337e+02, 6.71542838e+02, 6.74643937e+02, 6.77754261e+02,
       6.80873417e+02, 6.84000993e+02, 6.87136558e+02, 6.90279661e+02,
       6.93429834e+02, 6.96586586e+02, 6.99749409e+02, 7.02917776e+02,
       7.06091147e+02, 7.09268976e+02, 7.12450669e+02, 7.15635721e+02,
       7.18823631e+02, 7.22013936e+02, 7.25206130e+02, 7.28399701e+02,
       7.31594162e+02, 7.34789048e+02, 7.37983913e+02, 7.41178321e+02,
       7.44371849e+02, 7.47564089e+02, 7.50754645e+02, 7.53943137e+02,
       7.57129197e+02, 7.60312475e+02, 7.63492631e+02, 7.66669343e+02,
       7.69842303e+02, 7.73011216e+02, 7.76175804e+02, 7.79335802e+02,
       7.82490960e+02, 7.85641043e+02, 7.88785830e+02, 7.91925114e+02,
       7.95058705e+02, 7.98186423e+02, 8.01308106e+02, 8.04423604e+02,
       8.07532780e+02, 8.10635512e+02, 8.13731688e+02, 8.16821210e+02,
       8.19903992e+02, 8.22979958e+02, 8.26049047e+02, 8.29111207e+02,
       8.32166399e+02, 8.35214593e+02, 8.38255772e+02, 8.41289931e+02,
       8.44317073e+02, 8.47337213e+02, 8.50350376e+02, 8.53356599e+02,
       8.56355925e+02, 8.59348410e+02, 8.62334119e+02, 8.65313126e+02,
       8.68285515e+02, 8.71251378e+02, 8.74210817e+02, 8.77163943e+02,
       8.80110876e+02, 8.83051744e+02, 8.85986682e+02, 8.88915835e+02,
       8.91839357e+02, 8.94757409e+02, 8.97670159e+02, 9.00577785e+02,
       9.03480473e+02, 9.06378415e+02, 9.09271812e+02, 9.12160872e+02,
       9.15045811e+02, 9.17926851e+02, 9.20804225e+02, 9.23678170e+02,
       9.26548933e+02, 9.29416768e+02, 9.32281936e+02, 9.35144706e+02,
       9.38005354e+02, 9.40864164e+02, 9.43721430e+02, 9.46577451e+02,
       9.49432534e+02, 9.52286997e+02, 9.55141163e+02, 9.57995365e+02,
       9.60849944e+02, 9.63705250e+02, 9.66561643e+02, 9.69419489e+02,
