{'altitude': np.float64(9.119999999999926), 'velocity': np.float64(-94.10912251413718), 'num_rockets': 8, 'volume': 150, 'parachute': {'deployed': True, 'ejected': True, 'diameter': np.float64(14.591438359808766), 'Cd': 0.615, 'cost_per_A': 1000.0, 'mass': 185.0}, 'heat_shield': {'ejected': True, 'mass': 225.0, 'diameter': 4.5, 'Cd': 0.35}, 'rocket': {'on': True, 'structure_mass': 8.0, 'initial_fuel_mass': np.float64(289.9476539651741), 'cost_per_kg': 1500, 'fuel_mass': np.float64(281.44937786171556), 'effective_exhaust_velocity': 4500.0, 'max_thrust': 3100.0, 'min_thrust': 40.0}, 'speed_control': {'on': False, 'Kp': 2000, 'Kd': 20, 'Ki': 50, 'target_velocity': -3.0}, 'position_control': {'on': False, 'Kp': 2000, 'Kd': 1000, 'Ki': 50, 'target_altitude': 7.6}, 'sky_crane': {'on': False, 'danger_altitude': 4.5, 'danger_speed': -1.0, 'mass': 35.0, 'area': 16.0, 'Cd': 0.9, 'max_cable': 7.6, 'velocity': -0.1}, 'rover': {'wheel_assembly': {'wheel': {'radius': np.float64(0.7), 'mass': 1}, 'speed_reducer': {'type': 'reverted', 'diam_pinion': 0.04, 'diam_gear': np.float64(0.05), 'mass': 1.5}, 'motor': {'torque_stall': 165, 'torque_noload': 0, 'speed_noload': 3.85, 'mass': 5.0, 'effcy_tau': array([  0,  10,  20,  40,  75, 165]), 'effcy': array([0.  , 0.6 , 0.75, 0.73, 0.55, 0.05]), 'type': 'base', 'cost': 250000.0}}, 'chassis': {'mass': np.float64(251.4224643050554), 'type': 'magnesium', 'specific_strength': 250, 'strength': 164750}, 'science_payload': {'mass': 75}, 'power_subsys': {'mass': 90, 'battery': {'battery_type': 'LiFePO4', 'num_modules': 10, 'mass': 34.86, 'cost': 2250000.0, 'capacity': 907200.0}}, 'on_ground': False, 'telemetry': {'Time': array([0.00000000e+00, 7.34108744e-05, 1.46821749e-04, 8.80930493e-04,
       1.61503924e-03, 4.14840587e-03, 6.68177251e-03, 9.21513914e-03,
       1.98158974e-02, 3.04166556e-02, 4.10174139e-02, 7.13094334e-02,
       1.01601453e-01, 1.31893472e-01, 1.62185492e-01, 2.42093347e-01,
       3.22001203e-01, 4.01909058e-01, 4.81816913e-01, 5.61724769e-01,
       7.12361789e-01, 8.62998809e-01, 1.01363583e+00, 1.16427285e+00,
       1.31490987e+00, 1.53595951e+00, 1.75700915e+00, 1.97805879e+00,
       2.19910842e+00, 2.42015806e+00, 2.84272371e+00, 3.26528936e+00,
       3.68785501e+00, 4.11042066e+00, 5.11042066e+00, 6.11042066e+00,
       7.11042066e+00, 8.11042066e+00, 9.11042066e+00, 1.01104207e+01,
       1.11104207e+01, 1.21104207e+01, 1.31104207e+01, 1.41104207e+01,
       1.51104207e+01, 1.61104207e+01, 1.71104207e+01, 1.81104207e+01,
       1.91104207e+01, 2.01104207e+01, 2.11104207e+01, 2.21104207e+01,
       2.31104207e+01, 2.41104207e+01, 2.51104207e+01, 2.61104207e+01,
       2.71104207e+01, 2.81104207e+01, 2.91104207e+01, 3.01104207e+01,
       3.11104207e+01, 3.21104207e+01, 3.31104207e+01, 3.41104207e+01,
       3.51104207e+01, 3.61104207e+01, 3.71104207e+01, 3.81104207e+01,
       3.91104207e+01, 4.01104207e+01, 4.11104207e+01, 4.21104207e+01,
       4.31104207e+01, 4.41104207e+01, 4.51104207e+01, 4.61104207e+01,
       4.71104207e+01, 4.81104207e+01, 4.91104207e+01, 5.01104207e+01,
       5.11104207e+01, 5.21104207e+01, 5.31104207e+01, 5.41104207e+01,
       5.51104207e+01, 5.61104207e+01, 5.71104207e+01, 5.81104207e+01,
       5.91104207e+01, 6.01104207e+01, 6.11104207e+01, 6.21104207e+01,
       6.31104207e+01, 6.41104207e+01, 6.51104207e+01, 6.61104207e+01,
       6.71104207e+01, 6.81104207e+01, 6.91104207e+01, 7.01104207e+01,
       7.11104207e+01, 7.21104207e+01, 7.31104207e+01, 7.41104207e+01,
       7.51104207e+01, 7.61104207e+01, 7.71104207e+01, 7.81104207e+01,
       7.91104207e+01, 8.01104207e+01, 8.11104207e+01, 8.21104207e+01,
       8.31104207e+01, 8.41104207e+01, 8.51104207e+01, 8.61104207e+01,
       8.71104207e+01, 8.81104207e+01, 8.91104207e+01, 9.01104207e+01,
       9.11104207e+01, 9.21104207e+01, 9.31104207e+01, 9.41104207e+01,
       9.51104207e+01, 9.61104207e+01, 9.71104207e+01, 9.81104207e+01,
       9.91104207e+01, 1.00110421e+02, 1.01110421e+02, 1.02110421e+02,
       1.03110421e+02, 1.04110421e+02, 1.05110421e+02, 1.06110421e+02,
       1.07110421e+02, 1.08110421e+02, 1.09110421e+02, 1.10110421e+02,
       1.11110421e+02, 1.12110421e+02, 1.13110421e+02, 1.14110421e+02,
       1.15110421e+02, 1.16110421e+02, 1.17110421e+02, 1.18110421e+02,
       1.19110421e+02, 1.20110421e+02, 1.21110421e+02, 1.22110421e+02,
       1.23110421e+02, 1.24110421e+02, 1.25110421e+02, 1.26110421e+02,
       1.27110421e+02, 1.28110421e+02, 1.29110421e+02, 1.30110421e+02,
       1.31110421e+02, 1.32110421e+02, 1.33110421e+02, 1.34110421e+02,
       1.35110421e+02, 1.36110421e+02, 1.37110421e+02, 1.38110421e+02,
       1.39110421e+02, 1.40110421e+02, 1.41110421e+02, 1.42110421e+02,
       1.43110421e+02, 1.44110421e+02, 1.45110421e+02, 1.46110421e+02,
       1.47110421e+02, 1.48110421e+02, 1.49110421e+02, 1.50110421e+02,
       1.51110421e+02, 1.52110421e+02, 1.53110421e+02, 1.54110421e+02,
       1.55110421e+02, 1.56110421e+02, 1.57110421e+02, 1.58110421e+02,
       1.59110421e+02, 1.60110421e+02, 1.61110421e+02, 1.62110421e+02,
       1.63110421e+02, 1.64110421e+02, 1.65110421e+02, 1.66110421e+02,
       1.67110421e+02, 1.68110421e+02, 1.69110421e+02, 1.70110421e+02,
       1.71110421e+02, 1.72110421e+02, 1.73110421e+02, 1.74110421e+02,
       1.75110421e+02, 1.76110421e+02, 1.77110421e+02, 1.78110421e+02,
       1.79110421e+02, 1.80110421e+02, 1.81110421e+02, 1.82110421e+02,
       1.83110421e+02, 1.84110421e+02, 1.85110421e+02, 1.86110421e+02,
       1.87110421e+02, 1.88110421e+02, 1.89110421e+02, 1.90110421e+02,
       1.91110421e+02, 1.92110421e+02, 1.93110421e+02, 1.94110421e+02,
       1.95110421e+02, 1.96110421e+02, 1.97110421e+02, 1.98110421e+02,
       1.99110421e+02, 2.00110421e+02, 2.01110421e+02, 2.02110421e+02,
       2.03110421e+02, 2.04110421e+02, 2.05110421e+02, 2.06110421e+02,
       2.07110421e+02, 2.08110421e+02, 2.09110421e+02, 2.10110421e+02,
       2.11110421e+02, 2.12110421e+02, 2.13110421e+02, 2.14110421e+02,
       2.15110421e+02, 2.16110421e+02, 2.17110421e+02, 2.18110421e+02,
       2.19110421e+02, 2.20110421e+02, 2.21110421e+02, 2.22110421e+02,
       2.23110421e+02, 2.24110421e+02, 2.25110421e+02, 2.26110421e+02,
       2.27110421e+02, 2.28110421e+02, 2.29110421e+02, 2.30110421e+02,
       2.31110421e+02, 2.32110421e+02, 2.33110421e+02, 2.34110421e+02,
       2.35110421e+02, 2.36110421e+02, 2.37110421e+02, 2.38110421e+02,
       2.39110421e+02, 2.40110421e+02, 2.41110421e+02, 2.42110421e+02,
       2.43110421e+02, 2.44110421e+02, 2.45110421e+02, 2.46110421e+02,
       2.47110421e+02, 2.48110421e+02, 2.49110421e+02, 2.50110421e+02,
       2.51110421e+02, 2.52110421e+02, 2.53110421e+02, 2.54110421e+02,
       2.55110421e+02, 2.56110421e+02, 2.57110421e+02, 2.58110421e+02,
       2.59110421e+02, 2.60110421e+02, 2.61110421e+02, 2.62110421e+02,
       2.63110421e+02, 2.64110421e+02, 2.65110421e+02, 2.66110421e+02,
       2.67110421e+02, 2.68110421e+02, 2.69110421e+02, 2.70110421e+02,
       2.71110421e+02, 2.72110421e+02, 2.73110421e+02, 2.74110421e+02,
       2.75110421e+02, 2.76110421e+02, 2.77110421e+02, 2.78110421e+02,
       2.79110421e+02, 2.80110421e+02, 2.81110421e+02, 2.82110421e+02,
       2.83110421e+02, 2.84110421e+02, 2.85110421e+02, 2.86110421e+02,
       2.87110421e+02, 2.88110421e+02, 2.89110421e+02, 2.90110421e+02,
       2.91110421e+02, 2.92110421e+02, 2.93110421e+02, 2.94110421e+02,
       2.95110421e+02, 2.96110421e+02, 2.97110421e+02, 2.98110421e+02,
       2.99110421e+02, 3.00110421e+02, 3.01110421e+02, 3.02110421e+02,
       3.03110421e+02, 3.04110421e+02, 3.05110421e+02, 3.06110421e+02,
       3.07110421e+02, 3.08110421e+02, 3.09110421e+02, 3.10110421e+02,
       3.11110421e+02, 3.12110421e+02, 3.13110421e+02, 3.14110421e+02,
       3.15110421e+02, 3.16110421e+02, 3.17110421e+02, 3.18110421e+02,
       3.19110421e+02, 3.20110421e+02, 3.21110421e+02, 3.22110421e+02,
       3.23110421e+02, 3.24110421e+02, 3.25110421e+02, 3.26110421e+02,
       3.27110421e+02, 3.28110421e+02, 3.29110421e+02, 3.30110421e+02,
       3.31110421e+02, 3.32110421e+02, 3.33110421e+02, 3.34110421e+02,
       3.35110421e+02, 3.36110421e+02, 3.37110421e+02, 3.38110421e+02,
       3.39110421e+02, 3.40110421e+02, 3.41110421e+02, 3.42110421e+02,
       3.43110421e+02, 3.44110421e+02, 3.45110421e+02, 3.46110421e+02,
       3.47110421e+02, 3.48110421e+02, 3.49110421e+02, 3.50110421e+02,
       3.51110421e+02, 3.52110421e+02, 3.53110421e+02, 3.54110421e+02,
       3.55110421e+02, 3.56110421e+02, 3.57110421e+02, 3.58110421e+02,
       3.59110421e+02, 3.60110421e+02, 3.61110421e+02, 3.62110421e+02,
       3.63110421e+02, 3.64110421e+02, 3.65110421e+02, 3.66110421e+02,
       3.67110421e+02, 3.68110421e+02, 3.69110421e+02, 3.70110421e+02,
       3.71110421e+02, 3.72110421e+02, 3.73110421e+02, 3.74110421e+02,
       3.75110421e+02, 3.76110421e+02, 3.77110421e+02, 3.78110421e+02,
       3.79110421e+02, 3.80110421e+02, 3.81110421e+02, 3.82110421e+02,
       3.83110421e+02, 3.84110421e+02, 3.85110421e+02, 3.86110421e+02,
       3.87110421e+02, 3.88110421e+02, 3.89110421e+02, 3.90110421e+02,
       3.91110421e+02, 3.92110421e+02, 3.93110421e+02, 3.94110421e+02,
       3.95110421e+02, 3.96110421e+02, 3.97110421e+02, 3.98110421e+02,
       3.99110421e+02, 4.00110421e+02, 4.01110421e+02, 4.02110421e+02,
       4.03110421e+02, 4.04110421e+02, 4.05110421e+02, 4.06110421e+02,
       4.07110421e+02, 4.08110421e+02, 4.09110421e+02, 4.10110421e+02,
       4.11110421e+02, 4.12110421e+02, 4.13110421e+02, 4.14110421e+02,
       4.15110421e+02, 4.16110421e+02, 4.17110421e+02, 4.18110421e+02,
       4.19110421e+02, 4.20110421e+02, 4.21110421e+02, 4.22110421e+02,
       4.23110421e+02, 4.24110421e+02, 4.25110421e+02, 4.26110421e+02,
       4.27110421e+02, 4.28110421e+02, 4.29110421e+02, 4.30110421e+02,
       4.31110421e+02, 4.32110421e+02, 4.33110421e+02, 4.34110421e+02,
       4.35110421e+02, 4.36110421e+02, 4.37110421e+02, 4.38110421e+02,
       4.39110421e+02, 4.40110421e+02, 4.41110421e+02, 4.42110421e+02,
       4.43110421e+02, 4.44110421e+02, 4.45110421e+02, 4.46110421e+02,
       4.47110421e+02, 4.48110421e+02, 4.49110421e+02, 4.50110421e+02,
       4.51110421e+02, 4.52110421e+02, 4.53110421e+02, 4.54110421e+02,
       4.55110421e+02, 4.56110421e+02, 4.57110421e+02, 4.58110421e+02,
       4.59110421e+02, 4.60110421e+02, 4.61110421e+02, 4.62110421e+02,
       4.63110421e+02, 4.64110421e+02, 4.65110421e+02, 4.66110421e+02,
       4.67110421e+02, 4.68110421e+02, 4.69110421e+02, 4.70110421e+02,
       4.71110421e+02, 4.72110421e+02, 4.73110421e+02, 4.74110421e+02,
       4.75110421e+02, 4.76110421e+02, 4.77110421e+02, 4.78110421e+02,
       4.79110421e+02, 4.80110421e+02, 4.81110421e+02, 4.82110421e+02,
       4.83110421e+02, 4.84110421e+02, 4.85110421e+02, 4.86110421e+02,
       4.87110421e+02, 4.88110421e+02, 4.89110421e+02, 4.90110421e+02,
       4.91110421e+02, 4.92110421e+02, 4.93110421e+02, 4.94110421e+02,
       4.95110421e+02, 4.96110421e+02, 4.97110421e+02, 4.98110421e+02,
       4.99110421e+02, 5.00110421e+02, 5.01110421e+02, 5.02110421e+02,
       5.03110421e+02, 5.04110421e+02, 5.05110421e+02, 5.06110421e+02,
       5.07110421e+02, 5.08110421e+02, 5.09110421e+02, 5.10110421e+02,
       5.11110421e+02, 5.12110421e+02, 5.13110421e+02, 5.14110421e+02,
       5.15110421e+02, 5.16110421e+02, 5.17110421e+02, 5.18110421e+02,
       5.19110421e+02, 5.20110421e+02, 5.21110421e+02, 5.22110421e+02,
       5.23110421e+02, 5.24110421e+02, 5.25110421e+02, 5.26110421e+02,
       5.27110421e+02, 5.28110421e+02, 5.29110421e+02, 5.30110421e+02,
       5.31110421e+02, 5.32110421e+02, 5.33110421e+02, 5.34110421e+02,
       5.35110421e+02, 5.36110421e+02, 5.37110421e+02, 5.38110421e+02,
       5.39110421e+02, 5.40110421e+02, 5.41110421e+02, 5.42110421e+02,
       5.43110421e+02, 5.44110421e+02, 5.45110421e+02, 5.46110421e+02,
       5.47110421e+02, 5.48110421e+02, 5.49110421e+02, 5.50110421e+02,
       5.51110421e+02, 5.52110421e+02, 5.53110421e+02, 5.54110421e+02,
       5.55110421e+02, 5.56110421e+02, 5.57110421e+02, 5.58110421e+02,
       5.59110421e+02, 5.60110421e+02, 5.61110421e+02, 5.62110421e+02,
       5.63110421e+02, 5.64110421e+02, 5.65110421e+02, 5.66110421e+02,
       5.67110421e+02, 5.68110421e+02, 5.69110421e+02, 5.70110421e+02,
       5.71110421e+02, 5.72110421e+02, 5.73110421e+02, 5.74110421e+02,
       5.75110421e+02, 5.76110421e+02, 5.77110421e+02, 5.78110421e+02,
       5.79110421e+02, 5.80110421e+02, 5.81110421e+02, 5.82110421e+02,
       5.83110421e+02, 5.84110421e+02, 5.85110421e+02, 5.86110421e+02,
       5.87110421e+02, 5.88110421e+02, 5.89110421e+02, 5.90110421e+02,
       5.91110421e+02, 5.92110421e+02, 5.93110421e+02, 5.94110421e+02,
       5.95110421e+02, 5.96110421e+02, 5.97110421e+02, 5.98110421e+02,
       5.99110421e+02, 6.00110421e+02, 6.01110421e+02, 6.02110421e+02,
       6.03110421e+02, 6.04110421e+02, 6.05110421e+02, 6.06110421e+02,
       6.07110421e+02, 6.08110421e+02, 6.09110421e+02, 6.10110421e+02,
       6.11110421e+02, 6.12110421e+02, 6.13110421e+02, 6.14110421e+02,
       6.15110421e+02, 6.16110421e+02, 6.17110421e+02, 6.18110421e+02,
       6.19110421e+02, 6.20110421e+02, 6.21110421e+02, 6.22110421e+02,
       6.23110421e+02, 6.24110421e+02, 6.25110421e+02, 6.26110421e+02,
       6.27110421e+02, 6.28110421e+02, 6.29110421e+02, 6.30110421e+02,
       6.31110421e+02, 6.32110421e+02, 6.33110421e+02, 6.34110421e+02,
       6.35110421e+02, 6.36110421e+02, 6.37110421e+02, 6.38110421e+02,
       6.39110421e+02, 6.40110421e+02, 6.41110421e+02, 6.42110421e+02,
       6.43110421e+02, 6.44110421e+02, 6.45110421e+02, 6.46110421e+02,
       6.47110421e+02, 6.48110421e+02, 6.49110421e+02, 6.50110421e+02,
       6.51110421e+02, 6.52110421e+02, 6.53110421e+02, 6.54110421e+02,
       6.55110421e+02, 6.56110421e+02, 6.57110421e+02, 6.58110421e+02,
       6.59110421e+02, 6.60110421e+02, 6.61110421e+02, 6.62110421e+02,
       6.63110421e+02, 6.64110421e+02, 6.65110421e+02, 6.66110421e+02,
       6.67027278e+02]), 'completion_time': np.float64(667.0272777040732), 'velocity': array([0.3125    , 0.31269261, 0.31288518, 0.31480776, 0.31672678,
       0.32332378, 0.32987907, 0.33639202, 0.36319084, 0.38926786,
       0.41464148, 0.48343374, 0.54705242, 0.6058929 , 0.66031816,
       0.78511543, 0.88675268, 0.96953135, 1.03696704, 1.09193434,
       1.16965443, 1.22281909, 1.25921418, 1.28420828, 1.30153315,
       1.31827384, 1.32866599, 1.33531192, 1.33982898, 1.34322632,
       1.34803507, 1.3522899 , 1.3563885 , 1.36029062, 1.3691363 ,
       1.37773086, 1.38620256, 1.39453286, 1.40269633, 1.41068531,
       1.41849853, 1.42613421, 1.43358953, 1.44086175, 1.44794813,
       1.45484626, 1.46155408, 1.4680697 , 1.4743914 , 1.4805177 ,
       1.48644734, 1.49217925, 1.49771259, 1.50304671, 1.50818118,
       1.51311577, 1.51785045, 1.52238539, 1.52672096, 1.53085771,
       1.53479638, 1.53853789, 1.54208336, 1.54543405, 1.54859141,
       1.55155705, 1.55433274, 1.55692039, 1.55932208, 1.56154   ,
       1.56357651, 1.56543407, 1.56711529, 1.56862289, 1.5699597 ,
       1.57112864, 1.57213277, 1.57297522, 1.5736592 , 1.57418803,
       1.5745651 , 1.57479386, 1.57487783, 1.57482062, 1.57462585,
       1.57429723, 1.5738385 , 1.57325344, 1.57254586, 1.57171963,
       1.57077862, 1.56972673, 1.56856787, 1.56730598, 1.56594501,
       1.56448889, 1.56294158, 1.56130703, 1.55958918, 1.55779197,
       1.55591932, 1.55397515, 1.55196335, 1.54988778, 1.54775231,
       1.54556076, 1.54331694, 1.54102461, 1.53868751, 1.53630935,
       1.53389382, 1.53144455, 1.52896514, 1.52645916, 1.52393013,
       1.52138154, 1.51881685, 1.51623945, 1.51365271, 1.51105996,
       1.50846447, 1.50586948, 1.5032782 , 1.50069377, 1.49811931,
       1.49555789, 1.49301255, 1.49048628, 1.48798202, 1.4855027 ,
       1.48305119, 1.48063032, 1.47824291, 1.47589172, 1.47357948,
       1.47130891, 1.46908267, 1.4669034 , 1.46477373, 1.46269625,
       1.46067351, 1.45870806, 1.45680244, 1.45495913, 1.45318062,
       1.4514694 , 1.44982792, 1.44825862, 1.44676395, 1.44534635,
       1.44400824, 1.44275205, 1.44158023, 1.44049519, 1.43949939,
       1.43859528, 1.43778531, 1.43707198, 1.43645777, 1.43594521,
       1.43553683, 1.43523521, 1.43504295, 1.43496262, 1.43499539,
       1.43513977, 1.43539265, 1.43575143, 1.43621342, 1.43677603,
       1.43743643, 1.43819194, 1.43903999, 1.439978  , 1.44100338,
       1.44211353, 1.44330586, 1.44457782, 1.44592682, 1.44735029,
       1.44884567, 1.45041035, 1.45204176, 1.45373729, 1.45549432,
       1.45731024, 1.45918238, 1.46110809, 1.46308468, 1.46510944,
       1.46717964, 1.46929252, 1.47144529, 1.47363514, 1.47585923,
       1.47811466, 1.48039854, 1.48270792, 1.48503982, 1.48739121,
       1.48975905, 1.49214025, 1.49453168, 1.49693016, 1.49933249,
       1.50173542, 1.50413567, 1.5065299 , 1.50891474, 1.5112868 ,
       1.51364262, 1.51597871, 1.51829155, 1.52057759, 1.52283321,
       1.52505478, 1.52723864, 1.52938107, 1.53147834, 1.53352669,
       1.53552232, 1.53746139, 1.53934007, 1.54115449, 1.54290075,
       1.54457494, 1.54617313, 1.54769139, 1.54912578, 1.55047233,
       1.55172709, 1.55288675, 1.55395027, 1.55491848, 1.55579228,
       1.55657258, 1.55726027, 1.55785637, 1.55836187, 1.5587778 ,
       1.55910518, 1.55934508, 1.55949861, 1.55956688, 1.55955103,
       1.55945222, 1.55927163, 1.55901044, 1.55866989, 1.55825118,
       1.55775558, 1.55718434, 1.55653873, 1.55582004, 1.55502957,
       1.55416862, 1.5532385 , 1.55224055, 1.5511761 , 1.55004648,
       1.54885305, 1.54759716, 1.54628016, 1.54490342, 1.5434683 ,
       1.54197616, 1.54042838, 1.53882631, 1.53717134, 1.53546482,
       1.53370812, 1.53190261, 1.53004965, 1.5281506 , 1.52620682,
       1.52421964, 1.52219043, 1.52012052, 1.51801124, 1.51586392,
       1.51367989, 1.51146045, 1.50920692, 1.50692058, 1.50460274,
       1.50225466, 1.49987762, 1.49747288, 1.49504168, 1.49258528,
       1.49010488, 1.48760173, 1.48507701, 1.48253193, 1.47996767,
       1.47738539, 1.47478634, 1.47217204, 1.46954437, 1.46690521,
       1.46425639, 1.4615997 , 1.45893692, 1.45626984, 1.45360019,
       1.45092968, 1.44826001, 1.44559286, 1.44292985, 1.44027262,
       1.43762277, 1.43498186, 1.43235146, 1.42973309, 1.42712826,
       1.42453845, 1.42196514, 1.41940975, 1.41687371, 1.41435843,
       1.41186528, 1.40939562, 1.40695079, 1.40453212, 1.40214092,
       1.39977846, 1.39744601, 1.39514484, 1.39287617, 1.39064123,
       1.38844122, 1.38627734, 1.38415076, 1.38206265, 1.38001416,
       1.37800644, 1.37604061, 1.3741178 , 1.37223911, 1.37040566,
       1.36861853, 1.36687882, 1.3651876 , 1.36354595, 1.36195493,
       1.36041563, 1.3589291 , 1.3574964 , 1.3561186 , 1.35479674,
       1.3535319 , 1.35232513, 1.3511775 , 1.35009008, 1.34906392,
       1.34810011, 1.34719973, 1.34636387, 1.34559362, 1.34489009,
       1.34425439, 1.34368764, 1.34319099, 1.34276559, 1.3424126 ,
       1.3421332 , 1.34192859, 1.34179997, 1.34174814, 1.3417727 ,
       1.34187252, 1.34204641, 1.3422933 , 1.34261217, 1.34300196,
       1.34346163, 1.34399013, 1.34458647, 1.34524966, 1.3459787 ,
       1.34677262, 1.34763046, 1.34855126, 1.34953407, 1.35057797,
       1.351682  , 1.35284525, 1.35406679, 1.35534571, 1.35668109,
       1.35807201, 1.35951756, 1.36101684, 1.36256893, 1.36417292,
       1.3658279 , 1.36753296, 1.36928717, 1.37108962, 1.37293938,
       1.37483551, 1.37677709, 1.37876317, 1.38079281, 1.38286503,
       1.38497888, 1.38713339, 1.38932756, 1.39156041, 1.39383093,
       1.39613811, 1.3984809 , 1.40085828, 1.40326919, 1.40571256,
       1.4081873 , 1.41069232, 1.41322651, 1.41578874, 1.41837786,
       1.42099271, 1.42363211, 1.42629486, 1.42897975, 1.43168554,
       1.43441098, 1.43715479, 1.43991569, 1.44269236, 1.44548346,
       1.44828764, 1.45110352, 1.4539297 , 1.45676478, 1.45960729,
