{'altitude': np.float64(7.597928677007967), 'velocity': np.float64(5.244520071400611e-05), 'num_rockets': 8, 'volume': 150, 'parachute': {'deployed': True, 'ejected': True, 'diameter': np.float64(14.000005811503337), 'Cd': 0.615, 'cost_per_A': 1000.0, 'mass': 185.0}, 'heat_shield': {'ejected': True, 'mass': 225.0, 'diameter': 4.5, 'Cd': 0.35}, 'rocket': {'on': True, 'structure_mass': 8.0, 'initial_fuel_mass': np.float64(101.1719601587252), 'cost_per_kg': 1500, 'fuel_mass': np.float64(34.04377043834777), 'effective_exhaust_velocity': 4500.0, 'max_thrust': 3100.0, 'min_thrust': 40.0}, 'speed_control': {'on': False, 'Kp': 2000, 'Kd': 20, 'Ki': 50, 'target_velocity': -3.0}, 'position_control': {'on': True, 'Kp': 2000, 'Kd': 1000, 'Ki': 50, 'target_altitude': 7.6}, 'sky_crane': {'on': False, 'danger_altitude': 4.5, 'danger_speed': -1.0, 'mass': 35.0, 'area': 16.0, 'Cd': 0.9, 'max_cable': 7.6, 'velocity': -0.1}, 'rover': {'wheel_assembly': {'wheel': {'radius': np.float64(0.6999517841564528), 'mass': 1}, 'speed_reducer': {'type': 'reverted', 'diam_pinion': 0.04, 'diam_gear': np.float64(0.050410066518272525), 'mass': 1.5}, 'motor': {'torque_stall': 123.75, 'torque_noload': 0, 'speed_noload': 7.7, 'mass': 5.0, 'effcy_tau': array([  0.      ,   9.91875 ,  19.8375  ,  39.675   ,  74.390625,
       163.659375]), 'effcy': array([0.      , 0.7935  , 0.991875, 0.965425, 0.727375, 0.066125]), 'type': 'speed', 'cost': 300000.0}}, 'chassis': {'mass': np.float64(250.00245740824457), 'type': 'magnesium', 'specific_strength': 250, 'strength': 164750}, 'science_payload': {'mass': 75}, 'power_subsys': {'mass': 90, 'battery': {'battery_type': 'NiCD', 'num_modules': 10, 'mass': 6.69, 'cost': 250000, 'capacity': 90600.0}}, 'on_ground': True, 'telemetry': {'Time': array([0.00000000e+00, 7.91801861e-05, 1.58360372e-04, 9.50162233e-04,
       1.74196409e-03, 4.49033938e-03, 7.23871466e-03, 9.98708995e-03,
       2.09097921e-02, 3.18324942e-02, 4.27551964e-02, 7.87367213e-02,
       1.14718246e-01, 1.50699771e-01, 1.86681296e-01, 3.10803852e-01,
       4.34926409e-01, 5.59048965e-01, 6.83171521e-01, 1.00336481e+00,
       1.32355809e+00, 1.64375138e+00, 1.96394467e+00, 2.28413795e+00,
       2.71404458e+00, 3.14395120e+00, 3.57385783e+00, 4.00376445e+00,
       4.43367108e+00, 5.15062064e+00, 5.86757021e+00, 6.58451977e+00,
       7.30146933e+00, 8.30146933e+00, 9.30146933e+00, 1.03014693e+01,
       1.13014693e+01, 1.23014693e+01, 1.33014693e+01, 1.43014693e+01,
       1.53014693e+01, 1.63014693e+01, 1.73014693e+01, 1.83014693e+01,
       1.93014693e+01, 2.03014693e+01, 2.13014693e+01, 2.23014693e+01,
       2.33014693e+01, 2.43014693e+01, 2.53014693e+01, 2.63014693e+01,
       2.73014693e+01, 2.83014693e+01, 2.93014693e+01, 3.03014693e+01,
       3.13014693e+01, 3.23014693e+01, 3.33014693e+01, 3.43014693e+01,
       3.53014693e+01, 3.63014693e+01, 3.73014693e+01, 3.83014693e+01,
       3.93014693e+01, 4.03014693e+01, 4.13014693e+01, 4.23014693e+01,
       4.33014693e+01, 4.43014693e+01, 4.53014693e+01, 4.63014693e+01,
       4.73014693e+01, 4.83014693e+01, 4.93014693e+01, 5.03014693e+01,
       5.13014693e+01, 5.23014693e+01, 5.33014693e+01, 5.43014693e+01,
       5.53014693e+01, 5.63014693e+01, 5.73014693e+01, 5.83014693e+01,
       5.93014693e+01, 6.03014693e+01, 6.13014693e+01, 6.23014693e+01,
       6.33014693e+01, 6.43014693e+01, 6.53014693e+01, 6.63014693e+01,
       6.73014693e+01, 6.83014693e+01, 6.93014693e+01, 7.03014693e+01,
       7.13014693e+01, 7.23014693e+01, 7.33014693e+01, 7.43014693e+01,
       7.53014693e+01, 7.63014693e+01, 7.73014693e+01, 7.83014693e+01,
       7.93014693e+01, 8.03014693e+01, 8.13014693e+01, 8.23014693e+01,
       8.33014693e+01, 8.43014693e+01, 8.53014693e+01, 8.63014693e+01,
       8.73014693e+01, 8.83014693e+01, 8.93014693e+01, 9.03014693e+01,
       9.13014693e+01, 9.23014693e+01, 9.33014693e+01, 9.43014693e+01,
       9.53014693e+01, 9.63014693e+01, 9.73014693e+01, 9.83014693e+01,
       9.93014693e+01, 1.00301469e+02, 1.01301469e+02, 1.02301469e+02,
       1.03301469e+02, 1.04301469e+02, 1.05301469e+02, 1.06301469e+02,
       1.07301469e+02, 1.08301469e+02, 1.09301469e+02, 1.10301469e+02,
       1.11301469e+02, 1.12301469e+02, 1.13301469e+02, 1.14301469e+02,
       1.15301469e+02, 1.16301469e+02, 1.17301469e+02, 1.18301469e+02,
       1.19301469e+02, 1.20301469e+02, 1.21301469e+02, 1.22301469e+02,
       1.23301469e+02, 1.24301469e+02, 1.25301469e+02, 1.26301469e+02,
       1.27301469e+02, 1.28301469e+02, 1.29301469e+02, 1.30301469e+02,
       1.31301469e+02, 1.32301469e+02, 1.33301469e+02, 1.34301469e+02,
       1.35301469e+02, 1.36301469e+02, 1.37301469e+02, 1.38301469e+02,
       1.39301469e+02, 1.40301469e+02, 1.41301469e+02, 1.42301469e+02,
       1.43301469e+02, 1.44301469e+02, 1.45301469e+02, 1.46301469e+02,
       1.47301469e+02, 1.48301469e+02, 1.49301469e+02, 1.50301469e+02,
       1.51301469e+02, 1.52301469e+02, 1.53301469e+02, 1.54301469e+02,
       1.55301469e+02, 1.56301469e+02, 1.57301469e+02, 1.58301469e+02,
       1.59301469e+02, 1.60301469e+02, 1.61301469e+02, 1.62301469e+02,
       1.63301469e+02, 1.64301469e+02, 1.65301469e+02, 1.66301469e+02,
       1.67301469e+02, 1.68301469e+02, 1.69301469e+02, 1.70301469e+02,
       1.71301469e+02, 1.72301469e+02, 1.73301469e+02, 1.74301469e+02,
       1.75301469e+02, 1.76301469e+02, 1.77301469e+02, 1.78301469e+02,
       1.79301469e+02, 1.80301469e+02, 1.81301469e+02, 1.82301469e+02,
       1.83301469e+02, 1.84301469e+02, 1.85301469e+02, 1.86301469e+02,
       1.87301469e+02, 1.88301469e+02, 1.89301469e+02, 1.90301469e+02,
       1.91301469e+02, 1.92301469e+02, 1.93301469e+02, 1.94301469e+02,
       1.95301469e+02, 1.96301469e+02, 1.97301469e+02, 1.98301469e+02,
       1.99301469e+02, 2.00301469e+02, 2.01301469e+02, 2.02301469e+02,
       2.03301469e+02, 2.04301469e+02, 2.05301469e+02, 2.06301469e+02,
       2.07301469e+02, 2.08301469e+02, 2.09301469e+02, 2.10301469e+02,
       2.11301469e+02, 2.12301469e+02, 2.13301469e+02, 2.14301469e+02,
       2.15301469e+02, 2.16301469e+02, 2.17301469e+02, 2.18301469e+02,
       2.19301469e+02, 2.20301469e+02, 2.21301469e+02, 2.22301469e+02,
       2.23301469e+02, 2.24301469e+02, 2.25301469e+02, 2.26301469e+02,
       2.27301469e+02, 2.28301469e+02, 2.29301469e+02, 2.30301469e+02,
       2.31301469e+02, 2.32301469e+02, 2.33301469e+02, 2.34301469e+02,
       2.35301469e+02, 2.36301469e+02, 2.37301469e+02, 2.38301469e+02,
       2.39301469e+02, 2.40301469e+02, 2.41301469e+02, 2.42301469e+02,
       2.43301469e+02, 2.44301469e+02, 2.45301469e+02, 2.46301469e+02,
       2.47301469e+02, 2.48301469e+02, 2.49301469e+02, 2.50301469e+02,
       2.51301469e+02, 2.52301469e+02, 2.53301469e+02, 2.54301469e+02,
       2.55301469e+02, 2.56301469e+02, 2.57301469e+02, 2.58301469e+02,
       2.59301469e+02, 2.60301469e+02, 2.61301469e+02, 2.62301469e+02,
       2.63301469e+02, 2.64301469e+02, 2.65301469e+02, 2.66301469e+02,
       2.67301469e+02, 2.68301469e+02, 2.69301469e+02, 2.70301469e+02,
       2.71301469e+02, 2.72301469e+02, 2.73301469e+02, 2.74301469e+02,
       2.75301469e+02, 2.76301469e+02, 2.77301469e+02, 2.78301469e+02,
       2.79301469e+02, 2.80301469e+02, 2.81301469e+02, 2.82301469e+02,
       2.83301469e+02, 2.84301469e+02, 2.85301469e+02, 2.86301469e+02,
       2.87301469e+02, 2.88301469e+02, 2.89301469e+02, 2.90301469e+02,
       2.91301469e+02, 2.92301469e+02, 2.93301469e+02, 2.94301469e+02,
       2.95301469e+02, 2.96301469e+02, 2.97301469e+02, 2.98301469e+02,
       2.99301469e+02, 3.00301469e+02, 3.01301469e+02, 3.02301469e+02,
       3.03301469e+02, 3.04301469e+02, 3.05301469e+02, 3.06301469e+02,
       3.07301469e+02, 3.08301469e+02, 3.09301469e+02, 3.10301469e+02,
       3.11301469e+02, 3.12301469e+02, 3.13301469e+02, 3.14301469e+02,
       3.15301469e+02, 3.16301469e+02, 3.17301469e+02, 3.18301469e+02,
       3.19301469e+02, 3.20301469e+02, 3.21301469e+02, 3.22301469e+02,
       3.23301469e+02, 3.24301469e+02, 3.25301469e+02, 3.26301469e+02,
       3.27301469e+02, 3.28301469e+02, 3.29301469e+02, 3.30301469e+02,
       3.31301469e+02, 3.32301469e+02, 3.33301469e+02, 3.34301469e+02,
       3.35301469e+02, 3.36301469e+02, 3.37301469e+02, 3.38301469e+02,
       3.39301469e+02, 3.40301469e+02, 3.41301469e+02, 3.42301469e+02,
       3.43301469e+02, 3.44301469e+02, 3.45301469e+02, 3.46301469e+02,
       3.47301469e+02, 3.48301469e+02, 3.49301469e+02, 3.50301469e+02,
       3.51301469e+02, 3.52301469e+02, 3.52458986e+02]), 'completion_time': np.float64(352.45898648939857), 'velocity': array([0.3125    , 0.31267859, 0.31285717, 0.31464167, 0.3164247 ,
       0.32260305, 0.32876393, 0.33490701, 0.35914518, 0.38310437,
       0.40678756, 0.48289233, 0.5561487 , 0.62666631, 0.69455034,
       0.90983997, 1.0987187 , 1.26453285, 1.410183  , 1.71006597,
       1.92630808, 2.08298018, 2.19735975, 2.28191319, 2.36379669,
       2.42162854, 2.46400427, 2.49656401, 2.52300791, 2.55868986,
       2.58935064, 2.61750812, 2.64394595, 2.67871756, 2.7115827 ,
       2.7428514 , 2.77258976, 2.80076995, 2.82734831, 2.85229094,
       2.8755704 , 2.89716792, 2.91707308, 2.93528259, 2.95179972,
       2.96663427, 2.9798026 , 2.99132714, 3.00123654, 3.00956504,
       3.01635184, 3.02164075, 3.02548002, 3.02792187, 3.02902203,
       3.02883924, 3.02743489, 3.02487266, 3.02121796, 3.01653765,
       3.01089971, 3.00437289, 2.9970263 , 2.98892915, 2.98015045,
       2.97075877, 2.96082201, 2.95040719, 2.93958025, 2.92840592,
       2.91694758, 2.90526716, 2.89342502, 2.88147991, 2.86948902,
       2.85750774, 2.84558978, 2.83378722, 2.82215055, 2.81072866,
       2.7995689 , 2.78871714, 2.77821793, 2.76811452, 2.75844899,
       2.74926241, 2.7405949 , 2.73248579, 2.72497379, 2.71809709,
       2.71189357, 2.70640096, 2.70165696, 2.69769947, 2.69456675,
       2.69229768, 2.69093187, 2.6905025 , 2.69101502, 2.69244459,
       2.69475083, 2.69788832, 2.70181949, 2.70650495, 2.71190613,
       2.71798012, 2.72468457, 2.73197927, 2.73982449, 2.74817969,
       2.75700325, 2.76625274, 2.77588503, 2.78585606, 2.7961207 ,
       2.8066326 , 2.81734412, 2.82820629, 2.8391687 , 2.85017944,
       2.86118515, 2.87213083, 2.88295986, 2.89361416, 2.9040341 ,
       2.91415856, 2.92392501, 2.93326953, 2.94212703, 2.95043129,
       2.95811513, 2.96511069, 2.97135008, 2.97677928, 2.98137457,
       2.98513894, 2.98808409, 2.99022466, 2.99157681, 2.99215798,
       2.99198557, 2.99107985, 2.9894619 , 2.98715268, 2.98417346,
       2.98054626, 2.97629376, 2.97143914, 2.96600586, 2.96001764,
       2.95349841, 2.94647225, 2.93896335, 2.9309959 , 2.92259408,
       2.91378197, 2.90458353, 2.89502255, 2.88512257, 2.87490691,
       2.86439856, 2.85362019, 2.8425941 , 2.8313422 , 2.81988598,
       2.8082465 , 2.79644441, 2.78450189, 2.77244508, 2.76030333,
       2.74810682, 2.73588499, 2.72366621, 2.71147799, 2.699347  ,
       2.68729909, 2.67535923, 2.66355147, 2.65189901, 2.64042426,
       2.62914887, 2.61809374, 2.60727905, 2.59672429, 2.58644834,
       2.5764695 , 2.56680547, 2.55747353, 2.54849046, 2.53987266,
       2.53163615, 2.52379665, 2.51636962, 2.50937035, 2.50281395,
       2.49671544, 2.49108983, 2.48595213, 2.4813174 , 2.4772009 ,
       2.47361802, 2.47058446, 2.46811623, 2.46622971, 2.46494178,
       2.46426808, 2.4642145 , 2.4647741 , 2.46593243, 2.46767343,
       2.46998191, 2.47284337, 2.47624351, 2.48016819, 2.48460355,
       2.48953606, 2.49495247, 2.50083971, 2.50718481, 2.5139749 ,
       2.52119713, 2.52883863, 2.53688649, 2.54532765, 2.55414892,
       2.56333691, 2.57287797, 2.58275815, 2.5929632 , 2.60347846,
       2.61428887, 2.62537892, 2.63673258, 2.6483333 , 2.66016394,
       2.67220677, 2.6844434 , 2.69685475, 2.70942107, 2.72212182,
       2.73493567, 2.74784052, 2.76081347, 2.77383075, 2.78686875,
       2.79990778, 2.8129334 , 2.82593389, 2.8388973 , 2.85181117,
       2.86466281, 2.8774394 , 2.89012783, 2.90271463, 2.91518589,
       2.92752739, 2.93972456, 2.9517625 , 2.96362599, 2.97529947,
       2.98676712, 2.99801277, 3.00902   , 3.01977209, 3.03025212,
       3.0404429 , 3.05032705, 3.05988699, 3.06910497, 3.07796309,
       3.08644333, 3.09452759, 3.10219769, 3.10943543, 3.1162226 ,
       3.12254101, 3.12837256, 3.13369937, 3.13850791, 3.14279457,
       3.14656444, 3.14982745, 3.15259262, 3.15486993, 3.15666958,
       3.15800341, 3.15888356, 3.15932196, 3.1593306 , 3.15892188,
       3.15810854, 3.15690359, 3.15532018, 3.15337161, 3.15107133,
       3.14843293, 3.14547006, 3.14219647, 3.13862594, 3.13477231,
       3.1306494 , 3.12627104, 3.12165103, 3.11680315, 3.1117411 ,
       3.10647852, 3.10102897, 3.09540589, 3.08962266, 3.08369247,
       3.07762822, 3.07144222, 3.06514638, 3.05875232, 3.05227151,
       3.04571528, 3.03909482, 3.03242115, 3.0257051 , 3.01895738,
       3.01218851, 3.00540884, 2.99862858, 2.99185775, 2.98510621,
       2.97838367, 2.97169967, 2.96506357, 2.9584846 , 2.95197182,
       2.94553415, 2.93918036, 2.93291905, 2.92675872, 2.92070772,
       2.91477428, 2.90896649, 2.90329234, 2.8977597 , 2.89237636,
       2.88714998, 2.88208817, 2.87719843, 2.8724882 , 2.86796487,
       2.86363574, 2.85950809, 2.85558917, 2.85188617, 2.84840629,
       2.84515671, 2.84214462, 2.8393772 , 2.83686168, 2.83460531,
       2.83261539, 2.83089928, 2.82946439, 2.82831823, 2.8274684 ,
       2.82692262, 2.8266887 , 2.82677461, 2.82718847, 2.82793855,
       2.8290333 , 2.83048138, 2.83229165, 2.83447321, 2.8370354 ,
       2.83998781, 2.84334036, 2.84710323, 2.85128694, 2.85590238,
       2.86096077, 2.86647377, 2.87245341, 2.87343867]), 'position': array([0.00000000e+00, 2.47557415e-05, 4.95252785e-05, 2.98434564e-04,
       5.48724764e-04, 1.42750705e-03, 2.32275369e-03, 3.23476888e-03,
       7.02514041e-03, 1.10785009e-02, 1.53920756e-02, 3.14055827e-02,
       5.01073072e-02, 7.13958320e-02, 9.51738659e-02, 1.95077135e-01,
       3.20045977e-01, 4.66984602e-01, 6.33209390e-01, 1.13509135e+00,
       1.71854049e+00, 2.36126791e+00, 3.04726381e+00, 3.76496530e+00,
       4.76426887e+00, 5.79309446e+00, 6.84340175e+00, 7.90988151e+00,
       8.98901689e+00, 1.08117663e+01, 1.26578950e+01, 1.45245994e+01,
       1.64106624e+01, 1.90717979e+01, 2.17667806e+01, 2.44938692e+01,
       2.72514691e+01, 3.00380222e+01, 3.28519477e+01, 3.56917682e+01,
       3.85558126e+01, 4.14423350e+01, 4.43496069e+01, 4.72759276e+01,
       5.02196085e+01, 5.31789654e+01, 5.61523239e+01, 5.91380265e+01,
       6.21344425e+01, 6.51399738e+01, 6.81530593e+01, 7.11721791e+01,
       7.41958587e+01, 7.72226743e+01, 8.02512560e+01, 8.32802913e+01,
       8.63085278e+01, 8.93347789e+01, 9.23579186e+01, 9.53768861e+01,
       9.83906888e+01, 1.01398403e+02, 1.04399175e+02, 1.07392219e+02,
       1.10376820e+02, 1.13352330e+02, 1.16318169e+02, 1.19273827e+02,
       1.22218859e+02, 1.25152885e+02, 1.28075589e+02, 1.30986718e+02,
       1.33886081e+02, 1.36773545e+02, 1.39649034e+02, 1.42512530e+02,
       1.45364070e+02, 1.48203747e+02, 1.51031700e+02, 1.53848119e+02,
       1.56653244e+02, 1.59447359e+02, 1.62230796e+02, 1.65003927e+02,
       1.67767170e+02, 1.70520984e+02, 1.73265868e+02, 1.76002360e+02,
       1.78731038e+02, 1.81452521e+02, 1.84167462e+02, 1.86876553e+02,
       1.89580521e+02, 1.92280136e+02, 1.94976203e+02, 1.97669565e+02,
       2.00361107e+02, 2.03051748e+02, 2.05742428e+02, 2.08434078e+02,
       2.11127598e+02, 2.13823926e+02, 2.16523830e+02, 2.19228052e+02,
       2.21937257e+02, 2.24652151e+02, 2.27373421e+02, 2.30101697e+02,
       2.32837550e+02, 2.35581508e+02, 2.38334059e+02, 2.41095649e+02,
       2.43866683e+02, 2.46647523e+02, 2.49438484e+02, 2.52239838e+02,
       2.55051807e+02, 2.57874566e+02, 2.60708242e+02, 2.63552909e+02,
       2.66408591e+02, 2.69275256e+02, 2.72152814e+02, 2.75041118e+02,
       2.77939964e+02, 2.80849087e+02, 2.83768161e+02, 2.86696796e+02,
       2.89634538e+02, 2.92580866e+02, 2.95535190e+02, 2.98496857e+02,
       3.01465146e+02, 3.04439275e+02, 3.07418336e+02, 3.10401536e+02,
       3.13388081e+02, 3.16377168e+02, 3.19368003e+02, 3.22359807e+02,
       3.25351879e+02, 3.28343464e+02, 3.31333802e+02, 3.34322173e+02,
       3.37307894e+02, 3.40290308e+02, 3.43268781e+02, 3.46242699e+02,
       3.49211471e+02, 3.52174530e+02, 3.55131334e+02, 3.58081363e+02,
       3.61024122e+02, 3.63959142e+02, 3.66885974e+02, 3.69804198e+02,
       3.72713414e+02, 3.75613249e+02, 3.78503351e+02, 3.81383393e+02,
       3.84253072e+02, 3.87112105e+02, 3.89960234e+02, 3.92797222e+02,
       3.95622854e+02, 3.98436937e+02, 4.01239297e+02, 4.04029783e+02,
       4.06808268e+02, 4.09574651e+02, 4.12328863e+02, 4.15070863e+02,
       4.17800639e+02, 4.20518210e+02, 4.23223620e+02, 4.25916937e+02,
       4.28598258e+02, 4.31267701e+02, 4.33925412e+02, 4.36571558e+02,
       4.39206327e+02, 4.41829929e+02, 4.44442594e+02, 4.47044573e+02,
       4.49636136e+02, 4.52217569e+02, 4.54789180e+02, 4.57351293e+02,
       4.59904247e+02, 4.62448399e+02, 4.64984123e+02, 4.67511807e+02,
       4.70031856e+02, 4.72544692e+02, 4.75050748e+02, 4.77550475e+02,
       4.80044339e+02, 4.82532820e+02, 4.85016414e+02, 4.87495631e+02,
       4.89970997e+02, 4.92443053e+02, 4.94912357e+02, 4.97379483e+02,
       4.99845020e+02, 5.02309574e+02, 5.04773764e+02, 5.07238206e+02,
       5.09703508e+02, 5.12170261e+02, 5.14639040e+02, 5.17110406e+02,
       5.19584904e+02, 5.22063065e+02, 5.24545408e+02, 5.27032435e+02,
       5.29524638e+02, 5.32022495e+02, 5.34526468e+02, 5.37037010e+02,
       5.39554559e+02, 5.42079541e+02, 5.44612369e+02, 5.47153443e+02,
       5.49703149e+02, 5.52261860e+02, 5.54829938e+02, 5.57407727e+02,
       5.59995559e+02, 5.62593753e+02, 5.65202612e+02, 5.67822421e+02,
       5.70453454e+02, 5.73095965e+02, 5.75750194e+02, 5.78416360e+02,
       5.81094668e+02, 5.83785302e+02, 5.86488426e+02, 5.89204187e+02,
       5.91932708e+02, 5.94674089e+02, 5.97428411e+02, 6.00195731e+02,
       6.02976080e+02, 6.05769469e+02, 6.08575892e+02, 6.11395328e+02,
       6.14227747e+02, 6.17073105e+02, 6.19931346e+02, 6.22802403e+02,
       6.25686193e+02, 6.28582622e+02, 6.31491581e+02, 6.34412947e+02,
       6.37346584e+02, 6.40292340e+02, 6.43250048e+02, 6.46219526e+02,
       6.49200576e+02, 6.52192985e+02, 6.55196522e+02, 6.58210940e+02,
       6.61235976e+02, 6.64271347e+02, 6.67316757e+02, 6.70371890e+02,
       6.73436413e+02, 6.76509976e+02, 6.79592210e+02, 6.82682727e+02,
       6.85781123e+02, 6.88886975e+02, 6.91999840e+02, 6.95119260e+02,
       6.98244756e+02, 7.01375833e+02, 7.04511980e+02, 7.07652675e+02,
       7.10797398e+02, 7.13945587e+02, 7.17096764e+02, 7.20250456e+02,
       7.23406226e+02, 7.26563596e+02, 7.29722083e+02, 7.32881226e+02,
       7.36040589e+02, 7.39199750e+02, 7.42358299e+02, 7.45515839e+02,
       7.48671983e+02, 7.51826360e+02, 7.54978612e+02, 7.58128393e+02,
       7.61275372e+02, 7.64419232e+02, 7.67559669e+02, 7.70696392e+02,
       7.73829127e+02, 7.76957609e+02, 7.80081591e+02, 7.83200838e+02,
       7.86315128e+02, 7.89424256e+02, 7.92528026e+02, 7.95626259e+02,
       7.98718787e+02, 8.01805457e+02, 8.04886130e+02, 8.07960676e+02,
       8.11028980e+02, 8.14090938e+02, 8.17146458e+02, 8.20195458e+02,
       8.23237869e+02, 8.26273632e+02, 8.29302699e+02, 8.32325034e+02,
       8.35340609e+02, 8.38349408e+02, 8.41351426e+02, 8.44346668e+02,
       8.47335148e+02, 8.50316890e+02, 8.53291928e+02, 8.56260305e+02,
       8.59222074e+02, 8.62177297e+02, 8.65126043e+02, 8.68068393e+02,
       8.71004435e+02, 8.73934265e+02, 8.76857988e+02, 8.79775719e+02,
       8.82687579e+02, 8.85593697e+02, 8.88494211e+02, 8.91389266e+02,
       8.94279016e+02, 8.97163622e+02, 9.00043251e+02, 9.02918080e+02,
       9.05788291e+02, 9.08654076e+02, 9.11515631e+02, 9.14373163e+02,
       9.17226883e+02, 9.20077011e+02, 9.22923774e+02, 9.25767405e+02,
       9.28608146e+02, 9.31446245e+02, 9.34281957e+02, 9.37115546e+02,
