{'altitude': np.float64(9.120000000000152), 'velocity': np.float64(-97.96578311616456), 'num_rockets': 8, 'volume': 150, 'parachute': {'deployed': True, 'ejected': True, 'diameter': np.float64(14.457126918608203), 'Cd': 0.615, 'cost_per_A': 1000.0, 'mass': 185.0}, 'heat_shield': {'ejected': True, 'mass': 225.0, 'diameter': 4.5, 'Cd': 0.35}, 'rocket': {'on': True, 'structure_mass': 8.0, 'initial_fuel_mass': np.float64(289.6648805159284), 'cost_per_kg': 1500, 'fuel_mass': np.float64(281.38092802714726), 'effective_exhaust_velocity': 4500.0, 'max_thrust': 3100.0, 'min_thrust': 40.0}, 'speed_control': {'on': False, 'Kp': 2000, 'Kd': 20, 'Ki': 50, 'target_velocity': -3.0}, 'position_control': {'on': False, 'Kp': 2000, 'Kd': 1000, 'Ki': 50, 'target_altitude': 7.6}, 'sky_crane': {'on': False, 'danger_altitude': 4.5, 'danger_speed': -1.0, 'mass': 35.0, 'area': 16.0, 'Cd': 0.9, 'max_cable': 7.6, 'velocity': -0.1}, 'rover': {'wheel_assembly': {'wheel': {'radius': np.float64(0.6702175463716118), 'mass': 1}, 'speed_reducer': {'type': 'reverted', 'diam_pinion': 0.04, 'diam_gear': np.float64(0.05), 'mass': 1.5}, 'motor': {'torque_stall': 165, 'torque_noload': 0, 'speed_noload': 3.85, 'mass': 5.0, 'effcy_tau': array([  0,  10,  20,  40,  75, 165]), 'effcy': array([0.  , 0.6 , 0.75, 0.73, 0.55, 0.05]), 'type': 'base', 'cost': 250000.0}}, 'chassis': {'mass': np.float64(250.15173969211688), 'type': 'magnesium', 'specific_strength': 250, 'strength': 164750}, 'science_payload': {'mass': 75}, 'power_subsys': {'mass': 90, 'battery': {'battery_type': 'LiFePO4', 'num_modules': 10, 'mass': 34.86, 'cost': 2250000.0, 'capacity': 907200.0}}, 'on_ground': False, 'telemetry': {'Time': array([0.00000000e+00, 7.16296370e-05, 1.43259274e-04, 8.59555644e-04,
       1.57585201e-03, 4.04189153e-03, 6.50793105e-03, 8.97397056e-03,
       1.93260404e-02, 2.96781102e-02, 4.00301800e-02, 6.91769993e-02,
       9.83238185e-02, 1.27470638e-01, 1.56617457e-01, 2.33097472e-01,
       3.09577488e-01, 3.86057503e-01, 4.62537518e-01, 5.39017533e-01,
       6.79612336e-01, 8.20207139e-01, 9.60801941e-01, 1.10139674e+00,
       1.24199155e+00, 1.44936068e+00, 1.65672980e+00, 1.86409893e+00,
       2.07146806e+00, 2.41856259e+00, 2.76565712e+00, 3.11275165e+00,
       3.96585813e+00, 4.81896460e+00, 5.81896460e+00, 6.81896460e+00,
       7.81896460e+00, 8.81896460e+00, 9.81896460e+00, 1.08189646e+01,
       1.18189646e+01, 1.28189646e+01, 1.38189646e+01, 1.48189646e+01,
       1.58189646e+01, 1.68189646e+01, 1.78189646e+01, 1.88189646e+01,
       1.98189646e+01, 2.08189646e+01, 2.18189646e+01, 2.28189646e+01,
       2.38189646e+01, 2.48189646e+01, 2.58189646e+01, 2.68189646e+01,
       2.78189646e+01, 2.88189646e+01, 2.98189646e+01, 3.08189646e+01,
       3.18189646e+01, 3.28189646e+01, 3.38189646e+01, 3.48189646e+01,
       3.58189646e+01, 3.68189646e+01, 3.78189646e+01, 3.88189646e+01,
       3.98189646e+01, 4.08189646e+01, 4.18189646e+01, 4.28189646e+01,
       4.38189646e+01, 4.48189646e+01, 4.58189646e+01, 4.68189646e+01,
       4.78189646e+01, 4.88189646e+01, 4.98189646e+01, 5.08189646e+01,
       5.18189646e+01, 5.28189646e+01, 5.38189646e+01, 5.48189646e+01,
       5.58189646e+01, 5.68189646e+01, 5.78189646e+01, 5.88189646e+01,
       5.98189646e+01, 6.08189646e+01, 6.18189646e+01, 6.28189646e+01,
       6.38189646e+01, 6.48189646e+01, 6.58189646e+01, 6.68189646e+01,
       6.78189646e+01, 6.88189646e+01, 6.98189646e+01, 7.08189646e+01,
       7.18189646e+01, 7.28189646e+01, 7.38189646e+01, 7.48189646e+01,
       7.58189646e+01, 7.68189646e+01, 7.78189646e+01, 7.88189646e+01,
       7.98189646e+01, 8.08189646e+01, 8.18189646e+01, 8.28189646e+01,
       8.38189646e+01, 8.48189646e+01, 8.58189646e+01, 8.68189646e+01,
       8.78189646e+01, 8.88189646e+01, 8.98189646e+01, 9.08189646e+01,
       9.18189646e+01, 9.28189646e+01, 9.38189646e+01, 9.48189646e+01,
       9.58189646e+01, 9.68189646e+01, 9.78189646e+01, 9.88189646e+01,
       9.98189646e+01, 1.00818965e+02, 1.01818965e+02, 1.02818965e+02,
       1.03818965e+02, 1.04818965e+02, 1.05818965e+02, 1.06818965e+02,
       1.07818965e+02, 1.08818965e+02, 1.09818965e+02, 1.10818965e+02,
       1.11818965e+02, 1.12818965e+02, 1.13818965e+02, 1.14818965e+02,
       1.15818965e+02, 1.16818965e+02, 1.17818965e+02, 1.18818965e+02,
       1.19818965e+02, 1.20818965e+02, 1.21818965e+02, 1.22818965e+02,
       1.23818965e+02, 1.24818965e+02, 1.25818965e+02, 1.26818965e+02,
       1.27818965e+02, 1.28818965e+02, 1.29818965e+02, 1.30818965e+02,
       1.31818965e+02, 1.32818965e+02, 1.33818965e+02, 1.34818965e+02,
       1.35818965e+02, 1.36818965e+02, 1.37818965e+02, 1.38818965e+02,
       1.39818965e+02, 1.40818965e+02, 1.41818965e+02, 1.42818965e+02,
       1.43818965e+02, 1.44818965e+02, 1.45818965e+02, 1.46818965e+02,
       1.47818965e+02, 1.48818965e+02, 1.49818965e+02, 1.50818965e+02,
       1.51818965e+02, 1.52818965e+02, 1.53818965e+02, 1.54818965e+02,
       1.55818965e+02, 1.56818965e+02, 1.57818965e+02, 1.58818965e+02,
       1.59818965e+02, 1.60818965e+02, 1.61818965e+02, 1.62818965e+02,
       1.63818965e+02, 1.64818965e+02, 1.65818965e+02, 1.66818965e+02,
       1.67818965e+02, 1.68818965e+02, 1.69818965e+02, 1.70818965e+02,
       1.71818965e+02, 1.72818965e+02, 1.73818965e+02, 1.74818965e+02,
       1.75818965e+02, 1.76818965e+02, 1.77818965e+02, 1.78818965e+02,
       1.79818965e+02, 1.80818965e+02, 1.81818965e+02, 1.82818965e+02,
       1.83818965e+02, 1.84818965e+02, 1.85818965e+02, 1.86818965e+02,
       1.87818965e+02, 1.88818965e+02, 1.89818965e+02, 1.90818965e+02,
       1.91818965e+02, 1.92818965e+02, 1.93818965e+02, 1.94818965e+02,
       1.95818965e+02, 1.96818965e+02, 1.97818965e+02, 1.98818965e+02,
       1.99818965e+02, 2.00818965e+02, 2.01818965e+02, 2.02818965e+02,
       2.03818965e+02, 2.04818965e+02, 2.05818965e+02, 2.06818965e+02,
       2.07818965e+02, 2.08818965e+02, 2.09818965e+02, 2.10818965e+02,
       2.11818965e+02, 2.12818965e+02, 2.13818965e+02, 2.14818965e+02,
       2.15818965e+02, 2.16818965e+02, 2.17818965e+02, 2.18818965e+02,
       2.19818965e+02, 2.20818965e+02, 2.21818965e+02, 2.22818965e+02,
       2.23818965e+02, 2.24818965e+02, 2.25818965e+02, 2.26818965e+02,
       2.27818965e+02, 2.28818965e+02, 2.29818965e+02, 2.30818965e+02,
       2.31818965e+02, 2.32818965e+02, 2.33818965e+02, 2.34818965e+02,
       2.35818965e+02, 2.36818965e+02, 2.37818965e+02, 2.38818965e+02,
       2.39818965e+02, 2.40818965e+02, 2.41818965e+02, 2.42818965e+02,
       2.43818965e+02, 2.44818965e+02, 2.45818965e+02, 2.46818965e+02,
       2.47818965e+02, 2.48818965e+02, 2.49818965e+02, 2.50818965e+02,
       2.51818965e+02, 2.52818965e+02, 2.53818965e+02, 2.54818965e+02,
       2.55818965e+02, 2.56818965e+02, 2.57818965e+02, 2.58818965e+02,
       2.59818965e+02, 2.60818965e+02, 2.61818965e+02, 2.62818965e+02,
       2.63818965e+02, 2.64818965e+02, 2.65818965e+02, 2.66818965e+02,
       2.67818965e+02, 2.68818965e+02, 2.69818965e+02, 2.70818965e+02,
       2.71818965e+02, 2.72818965e+02, 2.73818965e+02, 2.74818965e+02,
       2.75818965e+02, 2.76818965e+02, 2.77818965e+02, 2.78818965e+02,
       2.79818965e+02, 2.80818965e+02, 2.81818965e+02, 2.82818965e+02,
       2.83818965e+02, 2.84818965e+02, 2.85818965e+02, 2.86818965e+02,
       2.87818965e+02, 2.88818965e+02, 2.89818965e+02, 2.90818965e+02,
       2.91818965e+02, 2.92818965e+02, 2.93818965e+02, 2.94818965e+02,
       2.95818965e+02, 2.96818965e+02, 2.97818965e+02, 2.98818965e+02,
       2.99818965e+02, 3.00818965e+02, 3.01818965e+02, 3.02818965e+02,
       3.03818965e+02, 3.04818965e+02, 3.05818965e+02, 3.06818965e+02,
       3.07818965e+02, 3.08818965e+02, 3.09818965e+02, 3.10818965e+02,
       3.11818965e+02, 3.12818965e+02, 3.13818965e+02, 3.14818965e+02,
       3.15818965e+02, 3.16818965e+02, 3.17818965e+02, 3.18818965e+02,
       3.19818965e+02, 3.20818965e+02, 3.21818965e+02, 3.22818965e+02,
       3.23818965e+02, 3.24818965e+02, 3.25818965e+02, 3.26818965e+02,
       3.27818965e+02, 3.28818965e+02, 3.29818965e+02, 3.30818965e+02,
       3.31818965e+02, 3.32818965e+02, 3.33818965e+02, 3.34818965e+02,
       3.35818965e+02, 3.36818965e+02, 3.37818965e+02, 3.38818965e+02,
       3.39818965e+02, 3.40818965e+02, 3.41818965e+02, 3.42818965e+02,
       3.43818965e+02, 3.44818965e+02, 3.45818965e+02, 3.46818965e+02,
       3.47818965e+02, 3.48818965e+02, 3.49818965e+02, 3.50818965e+02,
       3.51818965e+02, 3.52818965e+02, 3.53818965e+02, 3.54818965e+02,
       3.55818965e+02, 3.56818965e+02, 3.57818965e+02, 3.58818965e+02,
       3.59818965e+02, 3.60818965e+02, 3.61818965e+02, 3.62818965e+02,
       3.63818965e+02, 3.64818965e+02, 3.65818965e+02, 3.66818965e+02,
       3.67818965e+02, 3.68818965e+02, 3.69818965e+02, 3.70818965e+02,
       3.71818965e+02, 3.72818965e+02, 3.73818965e+02, 3.74818965e+02,
       3.75818965e+02, 3.76818965e+02, 3.77818965e+02, 3.78818965e+02,
       3.79818965e+02, 3.80818965e+02, 3.81818965e+02, 3.82818965e+02,
       3.83818965e+02, 3.84818965e+02, 3.85818965e+02, 3.86818965e+02,
       3.87818965e+02, 3.88818965e+02, 3.89818965e+02, 3.90818965e+02,
       3.91818965e+02, 3.92818965e+02, 3.93818965e+02, 3.94818965e+02,
       3.95818965e+02, 3.96818965e+02, 3.97818965e+02, 3.98818965e+02,
       3.99818965e+02, 4.00818965e+02, 4.01818965e+02, 4.02818965e+02,
       4.03818965e+02, 4.04818965e+02, 4.05818965e+02, 4.06818965e+02,
       4.07818965e+02, 4.08818965e+02, 4.09818965e+02, 4.10818965e+02,
       4.11818965e+02, 4.12818965e+02, 4.13818965e+02, 4.14818965e+02,
       4.15818965e+02, 4.16818965e+02, 4.17818965e+02, 4.18818965e+02,
       4.19818965e+02, 4.20818965e+02, 4.21818965e+02, 4.22818965e+02,
       4.23818965e+02, 4.24818965e+02, 4.25818965e+02, 4.26818965e+02,
       4.27818965e+02, 4.28818965e+02, 4.29818965e+02, 4.30818965e+02,
       4.31818965e+02, 4.32818965e+02, 4.33818965e+02, 4.34818965e+02,
       4.35818965e+02, 4.36818965e+02, 4.37818965e+02, 4.38818965e+02,
       4.39818965e+02, 4.40818965e+02, 4.41818965e+02, 4.42818965e+02,
       4.43818965e+02, 4.44818965e+02, 4.45818965e+02, 4.46818965e+02,
       4.47818965e+02, 4.48818965e+02, 4.49818965e+02, 4.50818965e+02,
       4.51818965e+02, 4.52818965e+02, 4.53818965e+02, 4.54818965e+02,
       4.55818965e+02, 4.56818965e+02, 4.57818965e+02, 4.58818965e+02,
       4.59818965e+02, 4.60818965e+02, 4.61818965e+02, 4.62818965e+02,
       4.63818965e+02, 4.64818965e+02, 4.65818965e+02, 4.66818965e+02,
       4.67818965e+02, 4.68818965e+02, 4.69818965e+02, 4.70818965e+02,
       4.71818965e+02, 4.72818965e+02, 4.73818965e+02, 4.74818965e+02,
       4.75818965e+02, 4.76818965e+02, 4.77818965e+02, 4.78818965e+02,
       4.79818965e+02, 4.80818965e+02, 4.81818965e+02, 4.82818965e+02,
       4.83818965e+02, 4.84818965e+02, 4.85818965e+02, 4.86818965e+02,
       4.87818965e+02, 4.88818965e+02, 4.89818965e+02, 4.90818965e+02,
       4.91818965e+02, 4.92818965e+02, 4.93818965e+02, 4.94818965e+02,
       4.95818965e+02, 4.96818965e+02, 4.97818965e+02, 4.98818965e+02,
       4.99818965e+02, 5.00818965e+02, 5.01818965e+02, 5.02818965e+02,
       5.03818965e+02, 5.04818965e+02, 5.05818965e+02, 5.06818965e+02,
       5.07818965e+02, 5.08818965e+02, 5.09818965e+02, 5.10818965e+02,
       5.11818965e+02, 5.12818965e+02, 5.13818965e+02, 5.14818965e+02,
       5.15818965e+02, 5.16818965e+02, 5.17818965e+02, 5.18818965e+02,
       5.19818965e+02, 5.20818965e+02, 5.21818965e+02, 5.22818965e+02,
       5.23818965e+02, 5.24818965e+02, 5.25818965e+02, 5.26818965e+02,
       5.27818965e+02, 5.28818965e+02, 5.29818965e+02, 5.30818965e+02,
       5.31818965e+02, 5.32818965e+02, 5.33818965e+02, 5.34818965e+02,
       5.35818965e+02, 5.36818965e+02, 5.37818965e+02, 5.38818965e+02,
       5.39818965e+02, 5.40818965e+02, 5.41818965e+02, 5.42818965e+02,
       5.43818965e+02, 5.44818965e+02, 5.45818965e+02, 5.46818965e+02,
       5.47818965e+02, 5.48818965e+02, 5.49818965e+02, 5.50818965e+02,
       5.51818965e+02, 5.52818965e+02, 5.53818965e+02, 5.54818965e+02,
       5.55818965e+02, 5.56818965e+02, 5.57818965e+02, 5.58818965e+02,
       5.59818965e+02, 5.60818965e+02, 5.61818965e+02, 5.62818965e+02,
       5.63818965e+02, 5.64818965e+02, 5.65818965e+02, 5.66818965e+02,
       5.67818965e+02, 5.68818965e+02, 5.69818965e+02, 5.70818965e+02,
       5.71818965e+02, 5.72818965e+02, 5.73818965e+02, 5.74818965e+02,
       5.75818965e+02, 5.76818965e+02, 5.77818965e+02, 5.78818965e+02,
       5.79818965e+02, 5.80818965e+02, 5.81818965e+02, 5.82818965e+02,
       5.83818965e+02, 5.84818965e+02, 5.85818965e+02, 5.86818965e+02,
       5.87818965e+02, 5.88818965e+02, 5.89818965e+02, 5.90818965e+02,
       5.91818965e+02, 5.92818965e+02, 5.93818965e+02, 5.94818965e+02,
       5.95818965e+02, 5.96818965e+02, 5.97818965e+02, 5.98818965e+02,
       5.99818965e+02, 6.00818965e+02, 6.01818965e+02, 6.02818965e+02,
       6.03818965e+02, 6.04818965e+02, 6.05818965e+02, 6.06818965e+02,
       6.07818965e+02, 6.08818965e+02, 6.09818965e+02, 6.10818965e+02,
       6.11818965e+02, 6.12818965e+02, 6.13818965e+02, 6.14818965e+02,
       6.15818965e+02, 6.16818965e+02, 6.17818965e+02, 6.18818965e+02,
       6.19818965e+02, 6.20818965e+02, 6.21818965e+02, 6.22818965e+02,
       6.23818965e+02, 6.24818965e+02, 6.25818965e+02, 6.26818965e+02,
       6.27818965e+02, 6.28818965e+02, 6.29818965e+02, 6.30818965e+02,
       6.31818965e+02, 6.32818965e+02, 6.33818965e+02, 6.34818965e+02,
       6.35818965e+02, 6.36818965e+02, 6.37818965e+02, 6.38818965e+02,
       6.39818965e+02, 6.40818965e+02, 6.41818965e+02, 6.42818965e+02,
       6.43818965e+02, 6.44818965e+02, 6.45818965e+02, 6.46818965e+02,
       6.47818965e+02, 6.48818965e+02, 6.49818965e+02, 6.50818965e+02,
       6.51818965e+02, 6.52818965e+02, 6.53818965e+02, 6.54818965e+02,
       6.55818965e+02, 6.56818965e+02, 6.57818965e+02, 6.58818965e+02,
       6.59818965e+02, 6.60818965e+02, 6.61818965e+02, 6.62818965e+02,
       6.63818965e+02, 6.64818965e+02, 6.65818965e+02, 6.66818965e+02,
       6.67818965e+02, 6.68818965e+02, 6.69818965e+02, 6.70818965e+02,
       6.71818965e+02, 6.72818965e+02, 6.73818965e+02, 6.74818965e+02,
       6.75818965e+02, 6.76818965e+02, 6.77818965e+02, 6.78818965e+02,
       6.79818965e+02, 6.80818965e+02, 6.81818965e+02, 6.82818965e+02,
       6.83818965e+02, 6.84818965e+02, 6.85818965e+02, 6.86818965e+02,
       6.87818965e+02, 6.88818965e+02, 6.89818965e+02, 6.90818965e+02,
       6.91818965e+02, 6.92228997e+02]), 'completion_time': np.float64(692.2289971673094), 'velocity': array([0.3125    , 0.31269739, 0.31289475, 0.31486486, 0.31683109,
       0.32357265, 0.33026885, 0.33691901, 0.36433917, 0.39097125,
       0.41683669, 0.48572712, 0.54917511, 0.60761748, 0.66145345,
       0.78342475, 0.8818062 , 0.961158  , 1.0251739 , 1.07684732,
       1.14747308, 1.19538269, 1.22788925, 1.25000539, 1.26519404,
       1.27934839, 1.28802344, 1.2937564 , 1.29777267, 1.30257299,
       1.30601987, 1.30897206, 1.31581978, 1.32251777, 1.3302409 ,
       1.33782009, 1.34525312, 1.35253995, 1.35967943, 1.36666923,
       1.37350674, 1.38018957, 1.38671553, 1.39308273, 1.39928924,
       1.40533331, 1.41121344, 1.41692826, 1.42247658, 1.42785736,
       1.43306974, 1.43811299, 1.44298658, 1.44769013, 1.45222338,
       1.45658628, 1.4607789 , 1.46480146, 1.46865434, 1.47233807,
       1.47585331, 1.47920086, 1.48238166, 1.48539678, 1.48824742,
       1.4909349 , 1.49346066, 1.49582627, 1.4980334 , 1.50008382,
       1.50197943, 1.5037222 , 1.50531423, 1.50675769, 1.50805482,
       1.50920799, 1.51021962, 1.5110922 , 1.51182829, 1.51243055,
       1.51290166, 1.51324439, 1.51346154, 1.51355597, 1.5135306 ,
       1.51338837, 1.51313227, 1.51276533, 1.5122906 , 1.51171118,
       1.51103016, 1.51025068, 1.50937589, 1.50840896, 1.50735305,
       1.50621136, 1.50498707, 1.50368339, 1.5023035 , 1.5008506 ,
       1.49932788, 1.49773853, 1.49608571, 1.4943726 , 1.49260233,
       1.49077806, 1.48890289, 1.48697993, 1.48501227, 1.48300296,
       1.48095504, 1.47887152, 1.47675539, 1.47460963, 1.47243715,
       1.47024087, 1.46802368, 1.46578841, 1.46353789, 1.46127491,
       1.45900223, 1.45672257, 1.45443863, 1.45215308, 1.44986855,
       1.44758764, 1.44531293, 1.44304694, 1.4407922 , 1.43855118,
       1.43632632, 1.43412005, 1.43193475, 1.42977279, 1.4276365 ,
       1.42552819, 1.42345013, 1.42140458, 1.41939377, 1.41741992,
       1.41548519, 1.41359176, 1.41174177, 1.40993735, 1.4081806 ,
       1.40647362, 1.40481847, 1.40321723, 1.40167193, 1.40018464,
       1.39875736, 1.39739213, 1.39609097, 1.39485589, 1.3936889 ,
       1.39259201, 1.39156724, 1.39061661, 1.38974212, 1.38894582,
       1.38822974, 1.38759593, 1.38704645, 1.38658338, 1.38620883,
       1.3859249 , 1.38573374, 1.38563751, 1.38563774, 1.38573364,
       1.38592306, 1.38620364, 1.38657318, 1.38702936, 1.38756995,
       1.3881928 , 1.38889576, 1.38967667, 1.39053337, 1.39146371,
       1.39246556, 1.3935368 , 1.3946753 , 1.39587892, 1.39714554,
       1.39847303, 1.39985926, 1.40130207, 1.40279932, 1.40434885,
       1.40594849, 1.40759605, 1.40928933, 1.41102612, 1.41280418,
       1.41462127, 1.41647511, 1.41836342, 1.42028388, 1.42223417,
       1.42421191, 1.42621474, 1.42824023, 1.43028596, 1.43234946,
       1.43442824, 1.4365198 , 1.43862157, 1.44073098, 1.44284544,
       1.4449623 , 1.44707891, 1.44919256, 1.45130054, 1.45340008,
       1.45548841, 1.4575627 , 1.45962013, 1.4616578 , 1.46367284,
       1.4656623 , 1.46762322, 1.46955264, 1.47144754, 1.4733049 ,
       1.47512165, 1.47689472, 1.47862101, 1.48029742, 1.48192079,
       1.48348799, 1.48499585, 1.48644119, 1.48782083, 1.48913157,
       1.49037021, 1.49153354, 1.49261837, 1.4936223 , 1.4945449 ,
       1.49538698, 1.49614928, 1.49683254, 1.49743748, 1.49796494,
       1.49841575, 1.49879072, 1.49909071, 1.49931658, 1.49946923,
       1.49954956, 1.4995585 , 1.49949698, 1.49936596, 1.4991664 ,
       1.49889928, 1.49856559, 1.49816634, 1.49770254, 1.49717521,
       1.4965854 , 1.49593414, 1.49522248, 1.49445149, 1.49362223,
       1.49273578, 1.49179321, 1.49079561, 1.48974407, 1.48863967,
       1.48748352, 1.48627672, 1.48502037, 1.48371556, 1.48236341,
       1.48096502, 1.47952149, 1.47803393, 1.47650344, 1.47493113,
       1.4733181 , 1.47166545, 1.46997427, 1.46824566, 1.4664807 ,
       1.46468049, 1.4628461 , 1.46097862, 1.45907911, 1.45714865,
       1.45518829, 1.45319909, 1.4511821 , 1.44913836, 1.44706892,
       1.44497479, 1.442857  , 1.44071657, 1.43855449, 1.43637178,
       1.43416942, 1.43194839, 1.42970966, 1.4274542 , 1.42518296,
       1.42289691, 1.42059719, 1.41828525, 1.41596267, 1.41363095,
       1.41129155, 1.40894596, 1.40659563, 1.404242  , 1.4018865 ,
       1.39953051, 1.39717543, 1.39482262, 1.39247344, 1.3901292 ,
       1.38779123, 1.38546081, 1.38313923, 1.38082775, 1.37852761,
       1.37624004, 1.37396624, 1.37170741, 1.36946474, 1.36723938,
       1.36503247, 1.36284516, 1.36067856, 1.35853377, 1.35641188,
       1.35431397, 1.35224109, 1.3501943 , 1.34817463, 1.34618311,
       1.34422075, 1.34228855, 1.3403875 , 1.33851859, 1.33668278,
       1.33488104, 1.33311432, 1.33138357, 1.32968972, 1.3280337 ,
       1.32641645, 1.32483886, 1.32330187, 1.32180637, 1.32035327,
       1.31894347, 1.31757786, 1.31625734, 1.31498281, 1.31375515,
       1.31257525, 1.311444  , 1.3103623 , 1.30933104, 1.30835111,
       1.30742341, 1.30654885, 1.30572832, 1.30496275, 1.30425304,
       1.30360011, 1.30300491, 1.30246836, 1.30199141, 1.30157503,
       1.30122017, 1.30092782, 1.30069897, 1.30053462, 1.30043577,
       1.30040289, 1.30043549, 1.30053255, 1.30069308, 1.30091627,
       1.30120122, 1.30154709, 1.30195294, 1.30241792, 1.30294119,
       1.30352194, 1.30415932, 1.30485253, 1.30560075, 1.30640317,
       1.30725901, 1.30816747, 1.30912776, 1.31013911, 1.31120073,
       1.31231186, 1.31347172, 1.31467954, 1.31593456, 1.317236  ,
