{'altitude': np.float64(9.120000000000298), 'velocity': np.float64(-90.59895906490695), 'num_rockets': 8, 'volume': 150, 'parachute': {'deployed': True, 'ejected': True, 'diameter': np.float64(14.210915980718084), 'Cd': 0.615, 'cost_per_A': 1000.0, 'mass': 185.0}, 'heat_shield': {'ejected': True, 'mass': 225.0, 'diameter': 4.5, 'Cd': 0.35}, 'rocket': {'on': True, 'structure_mass': 8.0, 'initial_fuel_mass': np.float64(273.9992430292429), 'cost_per_kg': 1500, 'fuel_mass': np.float64(265.43340111659444), 'effective_exhaust_velocity': 4500.0, 'max_thrust': 3100.0, 'min_thrust': 40.0}, 'speed_control': {'on': False, 'Kp': 2000, 'Kd': 20, 'Ki': 50, 'target_velocity': -3.0}, 'position_control': {'on': False, 'Kp': 2000, 'Kd': 1000, 'Ki': 50, 'target_altitude': 7.6}, 'sky_crane': {'on': False, 'danger_altitude': 4.5, 'danger_speed': -1.0, 'mass': 35.0, 'area': 16.0, 'Cd': 0.9, 'max_cable': 7.6, 'velocity': -0.1}, 'rover': {'wheel_assembly': {'wheel': {'radius': np.float64(0.6999994118032405), 'mass': 1}, 'speed_reducer': {'type': 'reverted', 'diam_pinion': 0.04, 'diam_gear': np.float64(0.0508729404614094), 'mass': 1.5}, 'motor': {'torque_stall': 165, 'torque_noload': 0, 'speed_noload': 3.85, 'mass': 5.0, 'effcy_tau': array([  0,  10,  20,  40,  75, 165]), 'effcy': array([0.  , 0.6 , 0.75, 0.73, 0.55, 0.05]), 'type': 'base', 'cost': 250000.0}}, 'chassis': {'mass': np.float64(258.60066202725903), 'type': 'magnesium', 'specific_strength': 250, 'strength': 164750}, 'science_payload': {'mass': 75}, 'power_subsys': {'mass': 90, 'battery': {'battery_type': 'LiFePO4', 'num_modules': 10, 'mass': 34.86, 'cost': 2250000.0, 'capacity': 907200.0}}, 'on_ground': False, 'telemetry': {'Time': array([0.00000000e+00, 7.27809235e-05, 1.45561847e-04, 8.73371082e-04,
       1.60118032e-03, 4.11101077e-03, 6.62084123e-03, 9.13067168e-03,
       1.96797013e-02, 3.02287309e-02, 4.07777605e-02, 7.06177652e-02,
       1.00457770e-01, 1.30297775e-01, 1.60137779e-01, 2.38563253e-01,
       3.16988727e-01, 3.95414202e-01, 4.73839676e-01, 5.52265150e-01,
       6.97219323e-01, 8.42173496e-01, 9.87127669e-01, 1.13208184e+00,
       1.27703602e+00, 1.49051338e+00, 1.70399074e+00, 1.91746810e+00,
       2.13094546e+00, 2.48619572e+00, 2.84144598e+00, 3.19669624e+00,
       4.05231165e+00, 4.90792706e+00, 5.90792706e+00, 6.90792706e+00,
       7.90792706e+00, 8.90792706e+00, 9.90792706e+00, 1.09079271e+01,
       1.19079271e+01, 1.29079271e+01, 1.39079271e+01, 1.49079271e+01,
       1.59079271e+01, 1.69079271e+01, 1.79079271e+01, 1.89079271e+01,
       1.99079271e+01, 2.09079271e+01, 2.19079271e+01, 2.29079271e+01,
       2.39079271e+01, 2.49079271e+01, 2.59079271e+01, 2.69079271e+01,
       2.79079271e+01, 2.89079271e+01, 2.99079271e+01, 3.09079271e+01,
       3.19079271e+01, 3.29079271e+01, 3.39079271e+01, 3.49079271e+01,
       3.59079271e+01, 3.69079271e+01, 3.79079271e+01, 3.89079271e+01,
       3.99079271e+01, 4.09079271e+01, 4.19079271e+01, 4.29079271e+01,
       4.39079271e+01, 4.49079271e+01, 4.59079271e+01, 4.69079271e+01,
       4.79079271e+01, 4.89079271e+01, 4.99079271e+01, 5.09079271e+01,
       5.19079271e+01, 5.29079271e+01, 5.39079271e+01, 5.49079271e+01,
       5.59079271e+01, 5.69079271e+01, 5.79079271e+01, 5.89079271e+01,
       5.99079271e+01, 6.09079271e+01, 6.19079271e+01, 6.29079271e+01,
       6.39079271e+01, 6.49079271e+01, 6.59079271e+01, 6.69079271e+01,
       6.79079271e+01, 6.89079271e+01, 6.99079271e+01, 7.09079271e+01,
       7.19079271e+01, 7.29079271e+01, 7.39079271e+01, 7.49079271e+01,
       7.59079271e+01, 7.69079271e+01, 7.79079271e+01, 7.89079271e+01,
       7.99079271e+01, 8.09079271e+01, 8.19079271e+01, 8.29079271e+01,
       8.39079271e+01, 8.49079271e+01, 8.59079271e+01, 8.69079271e+01,
       8.79079271e+01, 8.89079271e+01, 8.99079271e+01, 9.09079271e+01,
       9.19079271e+01, 9.29079271e+01, 9.39079271e+01, 9.49079271e+01,
       9.59079271e+01, 9.69079271e+01, 9.79079271e+01, 9.89079271e+01,
       9.99079271e+01, 1.00907927e+02, 1.01907927e+02, 1.02907927e+02,
       1.03907927e+02, 1.04907927e+02, 1.05907927e+02, 1.06907927e+02,
       1.07907927e+02, 1.08907927e+02, 1.09907927e+02, 1.10907927e+02,
       1.11907927e+02, 1.12907927e+02, 1.13907927e+02, 1.14907927e+02,
       1.15907927e+02, 1.16907927e+02, 1.17907927e+02, 1.18907927e+02,
       1.19907927e+02, 1.20907927e+02, 1.21907927e+02, 1.22907927e+02,
       1.23907927e+02, 1.24907927e+02, 1.25907927e+02, 1.26907927e+02,
       1.27907927e+02, 1.28907927e+02, 1.29907927e+02, 1.30907927e+02,
       1.31907927e+02, 1.32907927e+02, 1.33907927e+02, 1.34907927e+02,
       1.35907927e+02, 1.36907927e+02, 1.37907927e+02, 1.38907927e+02,
       1.39907927e+02, 1.40907927e+02, 1.41907927e+02, 1.42907927e+02,
       1.43907927e+02, 1.44907927e+02, 1.45907927e+02, 1.46907927e+02,
       1.47907927e+02, 1.48907927e+02, 1.49907927e+02, 1.50907927e+02,
       1.51907927e+02, 1.52907927e+02, 1.53907927e+02, 1.54907927e+02,
       1.55907927e+02, 1.56907927e+02, 1.57907927e+02, 1.58907927e+02,
       1.59907927e+02, 1.60907927e+02, 1.61907927e+02, 1.62907927e+02,
       1.63907927e+02, 1.64907927e+02, 1.65907927e+02, 1.66907927e+02,
       1.67907927e+02, 1.68907927e+02, 1.69907927e+02, 1.70907927e+02,
       1.71907927e+02, 1.72907927e+02, 1.73907927e+02, 1.74907927e+02,
       1.75907927e+02, 1.76907927e+02, 1.77907927e+02, 1.78907927e+02,
       1.79907927e+02, 1.80907927e+02, 1.81907927e+02, 1.82907927e+02,
       1.83907927e+02, 1.84907927e+02, 1.85907927e+02, 1.86907927e+02,
       1.87907927e+02, 1.88907927e+02, 1.89907927e+02, 1.90907927e+02,
       1.91907927e+02, 1.92907927e+02, 1.93907927e+02, 1.94907927e+02,
       1.95907927e+02, 1.96907927e+02, 1.97907927e+02, 1.98907927e+02,
       1.99907927e+02, 2.00907927e+02, 2.01907927e+02, 2.02907927e+02,
       2.03907927e+02, 2.04907927e+02, 2.05907927e+02, 2.06907927e+02,
       2.07907927e+02, 2.08907927e+02, 2.09907927e+02, 2.10907927e+02,
       2.11907927e+02, 2.12907927e+02, 2.13907927e+02, 2.14907927e+02,
       2.15907927e+02, 2.16907927e+02, 2.17907927e+02, 2.18907927e+02,
       2.19907927e+02, 2.20907927e+02, 2.21907927e+02, 2.22907927e+02,
       2.23907927e+02, 2.24907927e+02, 2.25907927e+02, 2.26907927e+02,
       2.27907927e+02, 2.28907927e+02, 2.29907927e+02, 2.30907927e+02,
       2.31907927e+02, 2.32907927e+02, 2.33907927e+02, 2.34907927e+02,
       2.35907927e+02, 2.36907927e+02, 2.37907927e+02, 2.38907927e+02,
       2.39907927e+02, 2.40907927e+02, 2.41907927e+02, 2.42907927e+02,
       2.43907927e+02, 2.44907927e+02, 2.45907927e+02, 2.46907927e+02,
       2.47907927e+02, 2.48907927e+02, 2.49907927e+02, 2.50907927e+02,
       2.51907927e+02, 2.52907927e+02, 2.53907927e+02, 2.54907927e+02,
       2.55907927e+02, 2.56907927e+02, 2.57907927e+02, 2.58907927e+02,
       2.59907927e+02, 2.60907927e+02, 2.61907927e+02, 2.62907927e+02,
       2.63907927e+02, 2.64907927e+02, 2.65907927e+02, 2.66907927e+02,
       2.67907927e+02, 2.68907927e+02, 2.69907927e+02, 2.70907927e+02,
       2.71907927e+02, 2.72907927e+02, 2.73907927e+02, 2.74907927e+02,
       2.75907927e+02, 2.76907927e+02, 2.77907927e+02, 2.78907927e+02,
       2.79907927e+02, 2.80907927e+02, 2.81907927e+02, 2.82907927e+02,
       2.83907927e+02, 2.84907927e+02, 2.85907927e+02, 2.86907927e+02,
       2.87907927e+02, 2.88907927e+02, 2.89907927e+02, 2.90907927e+02,
       2.91907927e+02, 2.92907927e+02, 2.93907927e+02, 2.94907927e+02,
       2.95907927e+02, 2.96907927e+02, 2.97907927e+02, 2.98907927e+02,
       2.99907927e+02, 3.00907927e+02, 3.01907927e+02, 3.02907927e+02,
       3.03907927e+02, 3.04907927e+02, 3.05907927e+02, 3.06907927e+02,
       3.07907927e+02, 3.08907927e+02, 3.09907927e+02, 3.10907927e+02,
       3.11907927e+02, 3.12907927e+02, 3.13907927e+02, 3.14907927e+02,
       3.15907927e+02, 3.16907927e+02, 3.17907927e+02, 3.18907927e+02,
       3.19907927e+02, 3.20907927e+02, 3.21907927e+02, 3.22907927e+02,
       3.23907927e+02, 3.24907927e+02, 3.25907927e+02, 3.26907927e+02,
       3.27907927e+02, 3.28907927e+02, 3.29907927e+02, 3.30907927e+02,
       3.31907927e+02, 3.32907927e+02, 3.33907927e+02, 3.34907927e+02,
       3.35907927e+02, 3.36907927e+02, 3.37907927e+02, 3.38907927e+02,
       3.39907927e+02, 3.40907927e+02, 3.41907927e+02, 3.42907927e+02,
       3.43907927e+02, 3.44907927e+02, 3.45907927e+02, 3.46907927e+02,
       3.47907927e+02, 3.48907927e+02, 3.49907927e+02, 3.50907927e+02,
       3.51907927e+02, 3.52907927e+02, 3.53907927e+02, 3.54907927e+02,
       3.55907927e+02, 3.56907927e+02, 3.57907927e+02, 3.58907927e+02,
       3.59907927e+02, 3.60907927e+02, 3.61907927e+02, 3.62907927e+02,
       3.63907927e+02, 3.64907927e+02, 3.65907927e+02, 3.66907927e+02,
       3.67907927e+02, 3.68907927e+02, 3.69907927e+02, 3.70907927e+02,
       3.71907927e+02, 3.72907927e+02, 3.73907927e+02, 3.74907927e+02,
       3.75907927e+02, 3.76907927e+02, 3.77907927e+02, 3.78907927e+02,
       3.79907927e+02, 3.80907927e+02, 3.81907927e+02, 3.82907927e+02,
       3.83907927e+02, 3.84907927e+02, 3.85907927e+02, 3.86907927e+02,
       3.87907927e+02, 3.88907927e+02, 3.89907927e+02, 3.90907927e+02,
       3.91907927e+02, 3.92907927e+02, 3.93907927e+02, 3.94907927e+02,
       3.95907927e+02, 3.96907927e+02, 3.97907927e+02, 3.98907927e+02,
       3.99907927e+02, 4.00907927e+02, 4.01907927e+02, 4.02907927e+02,
       4.03907927e+02, 4.04907927e+02, 4.05907927e+02, 4.06907927e+02,
       4.07907927e+02, 4.08907927e+02, 4.09907927e+02, 4.10907927e+02,
       4.11907927e+02, 4.12907927e+02, 4.13907927e+02, 4.14907927e+02,
       4.15907927e+02, 4.16907927e+02, 4.17907927e+02, 4.18907927e+02,
       4.19907927e+02, 4.20907927e+02, 4.21907927e+02, 4.22907927e+02,
       4.23907927e+02, 4.24907927e+02, 4.25907927e+02, 4.26907927e+02,
       4.27907927e+02, 4.28907927e+02, 4.29907927e+02, 4.30907927e+02,
       4.31907927e+02, 4.32907927e+02, 4.33907927e+02, 4.34907927e+02,
       4.35907927e+02, 4.36907927e+02, 4.37907927e+02, 4.38907927e+02,
       4.39907927e+02, 4.40907927e+02, 4.41907927e+02, 4.42907927e+02,
       4.43907927e+02, 4.44907927e+02, 4.45907927e+02, 4.46907927e+02,
       4.47907927e+02, 4.48907927e+02, 4.49907927e+02, 4.50907927e+02,
       4.51907927e+02, 4.52907927e+02, 4.53907927e+02, 4.54907927e+02,
       4.55907927e+02, 4.56907927e+02, 4.57907927e+02, 4.58907927e+02,
       4.59907927e+02, 4.60907927e+02, 4.61907927e+02, 4.62907927e+02,
       4.63907927e+02, 4.64907927e+02, 4.65907927e+02, 4.66907927e+02,
       4.67907927e+02, 4.68907927e+02, 4.69907927e+02, 4.70907927e+02,
       4.71907927e+02, 4.72907927e+02, 4.73907927e+02, 4.74907927e+02,
       4.75907927e+02, 4.76907927e+02, 4.77907927e+02, 4.78907927e+02,
       4.79907927e+02, 4.80907927e+02, 4.81907927e+02, 4.82907927e+02,
       4.83907927e+02, 4.84907927e+02, 4.85907927e+02, 4.86907927e+02,
       4.87907927e+02, 4.88907927e+02, 4.89907927e+02, 4.90907927e+02,
       4.91907927e+02, 4.92907927e+02, 4.93907927e+02, 4.94907927e+02,
       4.95907927e+02, 4.96907927e+02, 4.97907927e+02, 4.98907927e+02,
       4.99907927e+02, 5.00907927e+02, 5.01907927e+02, 5.02907927e+02,
       5.03907927e+02, 5.04907927e+02, 5.05907927e+02, 5.06907927e+02,
       5.07907927e+02, 5.08907927e+02, 5.09907927e+02, 5.10907927e+02,
       5.11907927e+02, 5.12907927e+02, 5.13907927e+02, 5.14907927e+02,
       5.15907927e+02, 5.16907927e+02, 5.17907927e+02, 5.18907927e+02,
       5.19907927e+02, 5.20907927e+02, 5.21907927e+02, 5.22907927e+02,
       5.23907927e+02, 5.24907927e+02, 5.25907927e+02, 5.26907927e+02,
       5.27907927e+02, 5.28907927e+02, 5.29907927e+02, 5.30907927e+02,
       5.31907927e+02, 5.32907927e+02, 5.33907927e+02, 5.34907927e+02,
       5.35907927e+02, 5.36907927e+02, 5.37907927e+02, 5.38907927e+02,
       5.39907927e+02, 5.40907927e+02, 5.41907927e+02, 5.42907927e+02,
       5.43907927e+02, 5.44907927e+02, 5.45907927e+02, 5.46907927e+02,
       5.47907927e+02, 5.48907927e+02, 5.49907927e+02, 5.50907927e+02,
       5.51907927e+02, 5.52907927e+02, 5.53907927e+02, 5.54907927e+02,
       5.55907927e+02, 5.56907927e+02, 5.57907927e+02, 5.58907927e+02,
       5.59907927e+02, 5.60907927e+02, 5.61907927e+02, 5.62907927e+02,
       5.63907927e+02, 5.64907927e+02, 5.65907927e+02, 5.66907927e+02,
       5.67907927e+02, 5.68907927e+02, 5.69907927e+02, 5.70907927e+02,
       5.71907927e+02, 5.72907927e+02, 5.73907927e+02, 5.74907927e+02,
       5.75907927e+02, 5.76907927e+02, 5.77907927e+02, 5.78907927e+02,
       5.79907927e+02, 5.80907927e+02, 5.81907927e+02, 5.82907927e+02,
       5.83907927e+02, 5.84907927e+02, 5.85907927e+02, 5.86907927e+02,
       5.87907927e+02, 5.88907927e+02, 5.89907927e+02, 5.90907927e+02,
       5.91907927e+02, 5.92907927e+02, 5.93907927e+02, 5.94907927e+02,
       5.95907927e+02, 5.96907927e+02, 5.97907927e+02, 5.98907927e+02,
       5.99907927e+02, 6.00907927e+02, 6.01907927e+02, 6.02907927e+02,
       6.03907927e+02, 6.04907927e+02, 6.05907927e+02, 6.06907927e+02,
       6.07907927e+02, 6.08907927e+02, 6.09907927e+02, 6.10907927e+02,
       6.11907927e+02, 6.12907927e+02, 6.13907927e+02, 6.14907927e+02,
       6.15907927e+02, 6.16907927e+02, 6.17907927e+02, 6.18907927e+02,
       6.19907927e+02, 6.20907927e+02, 6.21907927e+02, 6.22907927e+02,
       6.23907927e+02, 6.24907927e+02, 6.25907927e+02, 6.26907927e+02,
       6.27907927e+02, 6.28907927e+02, 6.29907927e+02, 6.30907927e+02,
       6.31907927e+02, 6.32907927e+02, 6.33907927e+02, 6.34907927e+02,
       6.35907927e+02, 6.36907927e+02, 6.37907927e+02, 6.38907927e+02,
       6.39907927e+02, 6.40907927e+02, 6.41907927e+02, 6.42907927e+02,
       6.43907927e+02, 6.44907927e+02, 6.45907927e+02, 6.46907927e+02,
       6.47907927e+02, 6.48907927e+02, 6.49907927e+02, 6.50907927e+02,
       6.51907927e+02, 6.52907927e+02, 6.53907927e+02, 6.54907927e+02,
       6.55907927e+02, 6.56907927e+02, 6.57907927e+02, 6.58907927e+02,
       6.59907927e+02, 6.60907927e+02, 6.61907927e+02, 6.62907927e+02,
       6.63907927e+02, 6.64907927e+02, 6.65907927e+02, 6.66907927e+02,
       6.67907927e+02, 6.68907927e+02, 6.69907927e+02, 6.70907927e+02,
       6.71907927e+02, 6.72907927e+02, 6.73907927e+02, 6.74907927e+02,
       6.75907927e+02, 6.76907927e+02, 6.77907927e+02, 6.78907927e+02,
       6.79907927e+02, 6.80907927e+02, 6.81907927e+02, 6.82907927e+02,
       6.83907927e+02, 6.84907927e+02, 6.85907927e+02, 6.86907927e+02,
       6.87907927e+02, 6.88373370e+02]), 'completion_time': np.float64(688.3733699535208), 'velocity': array([0.3125    , 0.31269427, 0.3128885 , 0.31482754, 0.31676281,
       0.32340973, 0.33001266, 0.33657097, 0.3636538 , 0.3899703 ,
       0.415541  , 0.48401133, 0.5471305 , 0.60532346, 0.65897897,
       0.78091568, 0.87947354, 0.95913482, 1.02353693, 1.07563317,
       1.14736293, 1.1961152 , 1.22926522, 1.25187407, 1.26744239,
       1.28199298, 1.29096132, 1.29692094, 1.30112161, 1.30615287,
       1.30980208, 1.31293867, 1.32006342, 1.32703006, 1.33503889,
       1.34289869, 1.35060718, 1.35816426, 1.36556868, 1.37281791,
       1.37990916, 1.3868398 , 1.39360745, 1.40021004, 1.40664547,
       1.41291182, 1.41900743, 1.42493079, 1.4306806 , 1.43625568,
       1.44165507, 1.44687796, 1.45192372, 1.45679191, 1.46148222,
       1.46599454, 1.47032891, 1.47448553, 1.47846479, 1.48226718,
       1.4858934 , 1.48934427, 1.49262076, 1.49572398, 1.49865519,
       1.50141577, 1.50400725, 1.50643126, 1.50868957, 1.51078405,
       1.51271672, 1.51448965, 1.51610507, 1.51756528, 1.51887266,
       1.52002972, 1.52103902, 1.52190322, 1.52262504, 1.52320729,
       1.52365283, 1.52396458, 1.52414555, 1.52419876, 1.52412732,
       1.52393434, 1.52362301, 1.52319655, 1.52265819, 1.52201122,
       1.52125893, 1.52040465, 1.51945172, 1.51840349, 1.51726334,
       1.51603464, 1.51472077, 1.51332513, 1.51185108, 1.51030202,
       1.50868131, 1.50699233, 1.50523843, 1.50342296, 1.50154924,
       1.49962059, 1.49764029, 1.49561163, 1.49353784, 1.49142216,
       1.48926777, 1.48707787, 1.48485559, 1.48260404, 1.48032632,
       1.47802548, 1.47570454, 1.47336649, 1.47101429, 1.46865086,
       1.46627911, 1.46390187, 1.46152198, 1.45914223, 1.45676536,
       1.4543941 , 1.45203114, 1.44967913, 1.44734068, 1.44501838,
       1.44271479, 1.44043243, 1.43817378, 1.43594132, 1.43373747,
       1.43156464, 1.42942519, 1.42732148, 1.42525583, 1.42323054,
       1.42124788, 1.41931011, 1.41741945, 1.41557812, 1.41378831,
       1.41205221, 1.41037196, 1.40874973, 1.40718766, 1.40568785,
       1.40425245, 1.40288356, 1.40158328, 1.40035372, 1.39919699,
       1.3981152 , 1.39711044, 1.39618484, 1.39534051, 1.39457958,
       1.3939042 , 1.39331653, 1.39281874, 1.39241302, 1.39210158,
       1.39188666, 1.39177054, 1.39175503, 1.39183981, 1.3920225 ,
       1.39230076, 1.39267223, 1.39313463, 1.39368554, 1.39432264,
       1.39504368, 1.39584643, 1.39672863, 1.39768803, 1.39872239,
       1.39982949, 1.4010071 , 1.40225299, 1.40356494, 1.40494072,
       1.40637809, 1.4078748 , 1.40942861, 1.41103726, 1.41269847,
       1.41440996, 1.41616942, 1.41797453, 1.41982296, 1.42171235,
       1.42364031, 1.42560446, 1.42760236, 1.42963156, 1.4316896 ,
       1.43377396, 1.43588213, 1.43801153, 1.4401596 , 1.44232371,
       1.4445012 , 1.44668942, 1.44888563, 1.45108711, 1.45329108,
       1.45549473, 1.45769522, 1.45988968, 1.46207521, 1.46424886,
       1.46640767, 1.46854864, 1.47066874, 1.47276489, 1.47483402,
       1.47687298, 1.47887864, 1.48084782, 1.4827773 , 1.48466386,
       1.48650424, 1.48829517, 1.49003335, 1.49171546, 1.49333817,
       1.49489813, 1.49639198, 1.49781634, 1.49916783, 1.50044307,
       1.50163865, 1.50275125, 1.50377876, 1.50472109, 1.50557912,
       1.50635373, 1.50704561, 1.50765554, 1.50818439, 1.50863301,
       1.50900231, 1.50929316, 1.50950651, 1.50964332, 1.50970454,
       1.50969115, 1.50960412, 1.50944449, 1.50921327, 1.5089115 ,
       1.50854024, 1.50810056, 1.50759352, 1.50702022, 1.50638176,
       1.50567925, 1.5049138 , 1.50408653, 1.50319859, 1.50225111,
       1.50124524, 1.50018213, 1.49906293, 1.4978888 , 1.49666091,
       1.49538042, 1.4940485 , 1.49266633, 1.49123507, 1.48975589,
       1.48822997, 1.48665847, 1.48504257, 1.48338344, 1.48168224,
       1.47994013, 1.47815827, 1.47633783, 1.47447996, 1.47258579,
       1.47065649, 1.46869318, 1.46669699, 1.46466907, 1.46261051,
       1.46052245, 1.45840599, 1.45626222, 1.45409224, 1.45189713,
       1.44967797, 1.44743582, 1.44517175, 1.44288681, 1.44058203,
       1.43825844, 1.43591708, 1.43355894, 1.43118504, 1.42879648,
       1.4263947 , 1.42398133, 1.42155798, 1.41912621, 1.41668756,
       1.41424358, 1.41179579, 1.4093457 , 1.40689476, 1.40444446,
       1.40199622, 1.39955148, 1.39711162, 1.39467804, 1.39225209,
       1.38983512, 1.38742847, 1.38503343, 1.38265129, 1.38028333,
       1.3779308 , 1.37559494, 1.37327697, 1.37097808, 1.36869948,
       1.36644232, 1.36420776, 1.36199695, 1.359811  , 1.35765102,
       1.35551813, 1.35341338, 1.35133787, 1.34929264, 1.34727873,
       1.34529719, 1.34334903, 1.34143527, 1.33955691, 1.33771495,
       1.33591035, 1.33414411, 1.33241719, 1.33073055, 1.32908514,
       1.32748191, 1.3259218 , 1.32440576, 1.32293471, 1.32150959,
       1.32013133, 1.31880085, 1.31751907, 1.31628692, 1.31510532,
       1.31397521, 1.31289749, 1.31187311, 1.31090299, 1.30998807,
       1.30912929, 1.30832758, 1.30758392, 1.30689924, 1.30627451,
       1.30571072, 1.30520884, 1.30476987, 1.3043948 , 1.30408467,
       1.30384049, 1.30366332, 1.30355419, 1.30351369, 1.30354138,
       1.30363625, 1.30379725, 1.30402349, 1.30431405, 1.30466803,
       1.3050845 , 1.30556257, 1.30610137, 1.30670003, 1.30735769,
       1.3080735 , 1.30884661, 1.30967619, 1.31056142, 1.31150148,
       1.31249554, 1.31354281, 1.31464246, 1.31579371, 1.31699574,
       1.31824777, 1.319549  , 1.32089862, 1.32229586, 1.32373991,
