{'altitude': np.float64(7.598086834575072), 'velocity': np.float64(4.8440219269706386e-05), 'num_rockets': 8, 'volume': 150, 'parachute': {'deployed': True, 'ejected': True, 'diameter': np.float64(14.004757978269215), 'Cd': 0.615, 'cost_per_A': 1000.0, 'mass': 185.0}, 'heat_shield': {'ejected': True, 'mass': 225.0, 'diameter': 4.5, 'Cd': 0.35}, 'rocket': {'on': True, 'structure_mass': 8.0, 'initial_fuel_mass': np.float64(131.35476472519065), 'cost_per_kg': 1500, 'fuel_mass': np.float64(59.8862233649644), 'effective_exhaust_velocity': 4500.0, 'max_thrust': 3100.0, 'min_thrust': 40.0}, 'speed_control': {'on': False, 'Kp': 2000, 'Kd': 20, 'Ki': 50, 'target_velocity': -3.0}, 'position_control': {'on': True, 'Kp': 2000, 'Kd': 1000, 'Ki': 50, 'target_altitude': 7.6}, 'sky_crane': {'on': False, 'danger_altitude': 4.5, 'danger_speed': -1.0, 'mass': 35.0, 'area': 16.0, 'Cd': 0.9, 'max_cable': 7.6, 'velocity': -0.1}, 'rover': {'wheel_assembly': {'wheel': {'radius': np.float64(0.6995242021730784), 'mass': 1}, 'speed_reducer': {'type': 'reverted', 'diam_pinion': 0.04, 'diam_gear': np.float64(0.05004277718251052), 'mass': 1.5}, 'motor': {'torque_stall': 165, 'torque_noload': 0, 'speed_noload': 3.85, 'mass': 5.0, 'effcy_tau': array([  0,  10,  20,  40,  75, 165]), 'effcy': array([0.  , 0.6 , 0.75, 0.73, 0.55, 0.05]), 'type': 'base', 'cost': 250000.0}}, 'chassis': {'mass': np.float64(250.92949173506352), 'type': 'magnesium', 'specific_strength': 250, 'strength': 164750}, 'science_payload': {'mass': 75}, 'power_subsys': {'mass': 90, 'battery': {'battery_type': 'LiFePO4', 'num_modules': 10, 'mass': 34.86, 'cost': 2250000.0, 'capacity': 907200.0}}, 'on_ground': True, 'telemetry': {'Time': array([0.00000000e+00, 7.32659696e-05, 1.46531939e-04, 8.79191635e-04,
       1.61185133e-03, 4.13971013e-03, 6.66756894e-03, 9.19542774e-03,
       1.97734484e-02, 3.03514691e-02, 4.09294898e-02, 7.11300607e-02,
       1.01330632e-01, 1.31531202e-01, 1.61731773e-01, 2.41372406e-01,
       3.21013038e-01, 4.00653670e-01, 4.80294302e-01, 5.59934934e-01,
       7.09866571e-01, 8.59798207e-01, 1.00972984e+00, 1.15966148e+00,
       1.30959312e+00, 1.52963726e+00, 1.74968141e+00, 1.96972555e+00,
       2.18976970e+00, 2.40981384e+00, 2.83083903e+00, 3.25186421e+00,
       3.67288940e+00, 4.09391459e+00, 5.09391459e+00, 6.09391459e+00,
       7.09391459e+00, 8.09391459e+00, 9.09391459e+00, 1.00939146e+01,
       1.10939146e+01, 1.20939146e+01, 1.30939146e+01, 1.40939146e+01,
       1.50939146e+01, 1.60939146e+01, 1.70939146e+01, 1.80939146e+01,
       1.90939146e+01, 2.00939146e+01, 2.10939146e+01, 2.20939146e+01,
       2.30939146e+01, 2.40939146e+01, 2.50939146e+01, 2.60939146e+01,
       2.70939146e+01, 2.80939146e+01, 2.90939146e+01, 3.00939146e+01,
       3.10939146e+01, 3.20939146e+01, 3.30939146e+01, 3.40939146e+01,
       3.50939146e+01, 3.60939146e+01, 3.70939146e+01, 3.80939146e+01,
       3.90939146e+01, 4.00939146e+01, 4.10939146e+01, 4.20939146e+01,
       4.30939146e+01, 4.40939146e+01, 4.50939146e+01, 4.60939146e+01,
       4.70939146e+01, 4.80939146e+01, 4.90939146e+01, 5.00939146e+01,
       5.10939146e+01, 5.20939146e+01, 5.30939146e+01, 5.40939146e+01,
       5.50939146e+01, 5.60939146e+01, 5.70939146e+01, 5.80939146e+01,
       5.90939146e+01, 6.00939146e+01, 6.10939146e+01, 6.20939146e+01,
       6.30939146e+01, 6.40939146e+01, 6.50939146e+01, 6.60939146e+01,
       6.70939146e+01, 6.80939146e+01, 6.90939146e+01, 7.00939146e+01,
       7.10939146e+01, 7.20939146e+01, 7.30939146e+01, 7.40939146e+01,
       7.50939146e+01, 7.60939146e+01, 7.70939146e+01, 7.80939146e+01,
       7.90939146e+01, 8.00939146e+01, 8.10939146e+01, 8.20939146e+01,
       8.30939146e+01, 8.40939146e+01, 8.50939146e+01, 8.60939146e+01,
       8.70939146e+01, 8.80939146e+01, 8.90939146e+01, 9.00939146e+01,
       9.10939146e+01, 9.20939146e+01, 9.30939146e+01, 9.40939146e+01,
       9.50939146e+01, 9.60939146e+01, 9.70939146e+01, 9.80939146e+01,
       9.90939146e+01, 1.00093915e+02, 1.01093915e+02, 1.02093915e+02,
       1.03093915e+02, 1.04093915e+02, 1.05093915e+02, 1.06093915e+02,
       1.07093915e+02, 1.08093915e+02, 1.09093915e+02, 1.10093915e+02,
       1.11093915e+02, 1.12093915e+02, 1.13093915e+02, 1.14093915e+02,
       1.15093915e+02, 1.16093915e+02, 1.17093915e+02, 1.18093915e+02,
       1.19093915e+02, 1.20093915e+02, 1.21093915e+02, 1.22093915e+02,
       1.23093915e+02, 1.24093915e+02, 1.25093915e+02, 1.26093915e+02,
       1.27093915e+02, 1.28093915e+02, 1.29093915e+02, 1.30093915e+02,
       1.31093915e+02, 1.32093915e+02, 1.33093915e+02, 1.34093915e+02,
       1.35093915e+02, 1.36093915e+02, 1.37093915e+02, 1.38093915e+02,
       1.39093915e+02, 1.40093915e+02, 1.41093915e+02, 1.42093915e+02,
       1.43093915e+02, 1.44093915e+02, 1.45093915e+02, 1.46093915e+02,
       1.47093915e+02, 1.48093915e+02, 1.49093915e+02, 1.50093915e+02,
       1.51093915e+02, 1.52093915e+02, 1.53093915e+02, 1.54093915e+02,
       1.55093915e+02, 1.56093915e+02, 1.57093915e+02, 1.58093915e+02,
       1.59093915e+02, 1.60093915e+02, 1.61093915e+02, 1.62093915e+02,
       1.63093915e+02, 1.64093915e+02, 1.65093915e+02, 1.66093915e+02,
       1.67093915e+02, 1.68093915e+02, 1.69093915e+02, 1.70093915e+02,
       1.71093915e+02, 1.72093915e+02, 1.73093915e+02, 1.74093915e+02,
       1.75093915e+02, 1.76093915e+02, 1.77093915e+02, 1.78093915e+02,
       1.79093915e+02, 1.80093915e+02, 1.81093915e+02, 1.82093915e+02,
       1.83093915e+02, 1.84093915e+02, 1.85093915e+02, 1.86093915e+02,
       1.87093915e+02, 1.88093915e+02, 1.89093915e+02, 1.90093915e+02,
       1.91093915e+02, 1.92093915e+02, 1.93093915e+02, 1.94093915e+02,
       1.95093915e+02, 1.96093915e+02, 1.97093915e+02, 1.98093915e+02,
       1.99093915e+02, 2.00093915e+02, 2.01093915e+02, 2.02093915e+02,
       2.03093915e+02, 2.04093915e+02, 2.05093915e+02, 2.06093915e+02,
       2.07093915e+02, 2.08093915e+02, 2.09093915e+02, 2.10093915e+02,
       2.11093915e+02, 2.12093915e+02, 2.13093915e+02, 2.14093915e+02,
       2.15093915e+02, 2.16093915e+02, 2.17093915e+02, 2.18093915e+02,
       2.19093915e+02, 2.20093915e+02, 2.21093915e+02, 2.22093915e+02,
       2.23093915e+02, 2.24093915e+02, 2.25093915e+02, 2.26093915e+02,
       2.27093915e+02, 2.28093915e+02, 2.29093915e+02, 2.30093915e+02,
       2.31093915e+02, 2.32093915e+02, 2.33093915e+02, 2.34093915e+02,
       2.35093915e+02, 2.36093915e+02, 2.37093915e+02, 2.38093915e+02,
       2.39093915e+02, 2.40093915e+02, 2.41093915e+02, 2.42093915e+02,
       2.43093915e+02, 2.44093915e+02, 2.45093915e+02, 2.46093915e+02,
       2.47093915e+02, 2.48093915e+02, 2.49093915e+02, 2.50093915e+02,
       2.51093915e+02, 2.52093915e+02, 2.53093915e+02, 2.54093915e+02,
       2.55093915e+02, 2.56093915e+02, 2.57093915e+02, 2.58093915e+02,
       2.59093915e+02, 2.60093915e+02, 2.61093915e+02, 2.62093915e+02,
       2.63093915e+02, 2.64093915e+02, 2.65093915e+02, 2.66093915e+02,
       2.67093915e+02, 2.68093915e+02, 2.69093915e+02, 2.70093915e+02,
       2.71093915e+02, 2.72093915e+02, 2.73093915e+02, 2.74093915e+02,
       2.75093915e+02, 2.76093915e+02, 2.77093915e+02, 2.78093915e+02,
       2.79093915e+02, 2.80093915e+02, 2.81093915e+02, 2.82093915e+02,
       2.83093915e+02, 2.84093915e+02, 2.85093915e+02, 2.86093915e+02,
       2.87093915e+02, 2.88093915e+02, 2.89093915e+02, 2.90093915e+02,
       2.91093915e+02, 2.92093915e+02, 2.93093915e+02, 2.94093915e+02,
       2.95093915e+02, 2.96093915e+02, 2.97093915e+02, 2.98093915e+02,
       2.99093915e+02, 3.00093915e+02, 3.01093915e+02, 3.02093915e+02,
       3.03093915e+02, 3.04093915e+02, 3.05093915e+02, 3.06093915e+02,
       3.07093915e+02, 3.08093915e+02, 3.09093915e+02, 3.10093915e+02,
       3.11093915e+02, 3.12093915e+02, 3.13093915e+02, 3.14093915e+02,
       3.15093915e+02, 3.16093915e+02, 3.17093915e+02, 3.18093915e+02,
       3.19093915e+02, 3.20093915e+02, 3.21093915e+02, 3.22093915e+02,
       3.23093915e+02, 3.24093915e+02, 3.25093915e+02, 3.26093915e+02,
       3.27093915e+02, 3.28093915e+02, 3.29093915e+02, 3.30093915e+02,
       3.31093915e+02, 3.32093915e+02, 3.33093915e+02, 3.34093915e+02,
       3.35093915e+02, 3.36093915e+02, 3.37093915e+02, 3.38093915e+02,
       3.39093915e+02, 3.40093915e+02, 3.41093915e+02, 3.42093915e+02,
       3.43093915e+02, 3.44093915e+02, 3.45093915e+02, 3.46093915e+02,
       3.47093915e+02, 3.48093915e+02, 3.49093915e+02, 3.50093915e+02,
       3.51093915e+02, 3.52093915e+02, 3.53093915e+02, 3.54093915e+02,
       3.55093915e+02, 3.56093915e+02, 3.57093915e+02, 3.58093915e+02,
       3.59093915e+02, 3.60093915e+02, 3.61093915e+02, 3.62093915e+02,
       3.63093915e+02, 3.64093915e+02, 3.65093915e+02, 3.66093915e+02,
       3.67093915e+02, 3.68093915e+02, 3.69093915e+02, 3.70093915e+02,
       3.71093915e+02, 3.72093915e+02, 3.73093915e+02, 3.74093915e+02,
       3.75093915e+02, 3.76093915e+02, 3.77093915e+02, 3.78093915e+02,
       3.79093915e+02, 3.80093915e+02, 3.81093915e+02, 3.82093915e+02,
       3.83093915e+02, 3.84093915e+02, 3.85093915e+02, 3.86093915e+02,
       3.87093915e+02, 3.88093915e+02, 3.89093915e+02, 3.90093915e+02,
       3.91093915e+02, 3.92093915e+02, 3.93093915e+02, 3.94093915e+02,
       3.95093915e+02, 3.96093915e+02, 3.97093915e+02, 3.98093915e+02,
       3.99093915e+02, 4.00093915e+02, 4.01093915e+02, 4.02093915e+02,
       4.03093915e+02, 4.04093915e+02, 4.05093915e+02, 4.06093915e+02,
       4.07093915e+02, 4.08093915e+02, 4.09093915e+02, 4.10093915e+02,
       4.11093915e+02, 4.12093915e+02, 4.13093915e+02, 4.14093915e+02,
       4.15093915e+02, 4.16093915e+02, 4.17093915e+02, 4.18093915e+02,
       4.19093915e+02, 4.20093915e+02, 4.21093915e+02, 4.22093915e+02,
       4.23093915e+02, 4.24093915e+02, 4.25093915e+02, 4.26093915e+02,
       4.27093915e+02, 4.28093915e+02, 4.29093915e+02, 4.30093915e+02,
       4.31093915e+02, 4.32093915e+02, 4.33093915e+02, 4.34093915e+02,
       4.35093915e+02, 4.36093915e+02, 4.37093915e+02, 4.38093915e+02,
       4.39093915e+02, 4.40093915e+02, 4.41093915e+02, 4.42093915e+02,
       4.43093915e+02, 4.44093915e+02, 4.45093915e+02, 4.46093915e+02,
       4.47093915e+02, 4.48093915e+02, 4.49093915e+02, 4.50093915e+02,
       4.51093915e+02, 4.52093915e+02, 4.53093915e+02, 4.54093915e+02,
       4.55093915e+02, 4.56093915e+02, 4.57093915e+02, 4.58093915e+02,
       4.59093915e+02, 4.60093915e+02, 4.61093915e+02, 4.62093915e+02,
       4.63093915e+02, 4.64093915e+02, 4.65093915e+02, 4.66093915e+02,
       4.67093915e+02, 4.68093915e+02, 4.69093915e+02, 4.70093915e+02,
       4.71093915e+02, 4.72093915e+02, 4.73093915e+02, 4.74093915e+02,
       4.75093915e+02, 4.76093915e+02, 4.77093915e+02, 4.78093915e+02,
       4.79093915e+02, 4.80093915e+02, 4.81093915e+02, 4.82093915e+02,
       4.83093915e+02, 4.84093915e+02, 4.85093915e+02, 4.86093915e+02,
       4.87093915e+02, 4.88093915e+02, 4.89093915e+02, 4.90093915e+02,
       4.91093915e+02, 4.92093915e+02, 4.93093915e+02, 4.94093915e+02,
       4.95093915e+02, 4.96093915e+02, 4.97093915e+02, 4.98093915e+02,
       4.99093915e+02, 5.00093915e+02, 5.01093915e+02, 5.02093915e+02,
       5.03093915e+02, 5.04093915e+02, 5.05093915e+02, 5.06093915e+02,
       5.07093915e+02, 5.08093915e+02, 5.09093915e+02, 5.10093915e+02,
       5.11093915e+02, 5.12093915e+02, 5.13093915e+02, 5.14093915e+02,
       5.15093915e+02, 5.16093915e+02, 5.17093915e+02, 5.18093915e+02,
       5.19093915e+02, 5.20093915e+02, 5.21093915e+02, 5.22093915e+02,
       5.23093915e+02, 5.24093915e+02, 5.25093915e+02, 5.26093915e+02,
       5.27093915e+02, 5.28093915e+02, 5.29093915e+02, 5.30093915e+02,
       5.31093915e+02, 5.32093915e+02, 5.33093915e+02, 5.34093915e+02,
       5.35093915e+02, 5.36093915e+02, 5.37093915e+02, 5.38093915e+02,
       5.39093915e+02, 5.40093915e+02, 5.41093915e+02, 5.42093915e+02,
       5.43093915e+02, 5.44093915e+02, 5.45093915e+02, 5.46093915e+02,
       5.47093915e+02, 5.48093915e+02, 5.49093915e+02, 5.50093915e+02,
       5.51093915e+02, 5.52093915e+02, 5.53093915e+02, 5.54093915e+02,
       5.55093915e+02, 5.56093915e+02, 5.57093915e+02, 5.58093915e+02,
       5.59093915e+02, 5.60093915e+02, 5.61093915e+02, 5.62093915e+02,
       5.63093915e+02, 5.64093915e+02, 5.65093915e+02, 5.66093915e+02,
       5.67093915e+02, 5.68093915e+02, 5.69093915e+02, 5.70093915e+02,
       5.71093915e+02, 5.72093915e+02, 5.73093915e+02, 5.74093915e+02,
       5.75093915e+02, 5.76093915e+02, 5.77093915e+02, 5.78093915e+02,
       5.79093915e+02, 5.80093915e+02, 5.81093915e+02, 5.82093915e+02,
       5.83093915e+02, 5.84093915e+02, 5.85093915e+02, 5.86093915e+02,
       5.87093915e+02, 5.88093915e+02, 5.89093915e+02, 5.90093915e+02,
       5.91093915e+02, 5.92093915e+02, 5.93093915e+02, 5.94093915e+02,
       5.95093915e+02, 5.96093915e+02, 5.97093915e+02, 5.98093915e+02,
       5.99093915e+02, 6.00093915e+02, 6.01093915e+02, 6.02093915e+02,
       6.03093915e+02, 6.04093915e+02, 6.05093915e+02, 6.06093915e+02,
       6.07093915e+02, 6.08093915e+02, 6.09093915e+02, 6.10093915e+02,
       6.11093915e+02, 6.12093915e+02, 6.13093915e+02, 6.14093915e+02,
       6.15093915e+02, 6.16093915e+02, 6.17093915e+02, 6.18093915e+02,
       6.19093915e+02, 6.20093915e+02, 6.21093915e+02, 6.22093915e+02,
       6.23093915e+02, 6.24093915e+02, 6.25093915e+02, 6.26093915e+02,
       6.27093915e+02, 6.28093915e+02, 6.29093915e+02, 6.30093915e+02,
       6.31093915e+02, 6.32093915e+02, 6.33093915e+02, 6.34093915e+02,
       6.35093915e+02, 6.36093915e+02, 6.37093915e+02, 6.38093915e+02,
       6.39093915e+02, 6.40093915e+02, 6.41093915e+02, 6.42093915e+02,
       6.43093915e+02, 6.44093915e+02, 6.45093915e+02, 6.46093915e+02,
       6.47093915e+02, 6.48093915e+02, 6.49093915e+02, 6.50093915e+02,
       6.51093915e+02, 6.52093915e+02, 6.53093915e+02, 6.54093915e+02,
       6.55093915e+02, 6.56093915e+02, 6.57093915e+02, 6.58093915e+02,
       6.59093915e+02, 6.60093915e+02, 6.61093915e+02, 6.62093915e+02,
       6.63093915e+02, 6.64093915e+02, 6.65093915e+02, 6.66093915e+02,
       6.67093915e+02, 6.68093915e+02, 6.68284518e+02]), 'completion_time': np.float64(668.2845181815001), 'velocity': array([0.3125    , 0.31269299, 0.31288594, 0.31481231, 0.3167351 ,
       0.32334362, 0.32991022, 0.33643425, 0.36327783, 0.3893958 ,
       0.41480674, 0.48362898, 0.54726158, 0.60610221, 0.66051585,
       0.78520193, 0.88669751, 0.96931887, 1.03659206, 1.09139891,
       1.16875203, 1.22164169, 1.25783081, 1.28267045, 1.29987902,
       1.31649891, 1.32680701, 1.33339218, 1.33786314, 1.34122351,
       1.34597976, 1.35018947, 1.35424571, 1.35810683, 1.36689085,
       1.37542563, 1.38383905, 1.3921123 , 1.40021999, 1.40815459,
       1.41591492, 1.42349923, 1.43090473, 1.43812858, 1.44516831,
       1.45202156, 1.45868618, 1.4651603 , 1.47144226, 1.47753061,
       1.48342408, 1.48912163, 1.49462243, 1.49992585, 1.50503146,
       1.50993904, 1.51464855, 1.51916016, 1.52347423, 1.52759131,
       1.53151213, 1.53523759, 1.53876879, 1.54210698, 1.54525359,
       1.5482102 , 1.55097855, 1.55356053, 1.55595817, 1.55817366,
       1.5602093 , 1.56206754, 1.56375093, 1.56526214, 1.56660398,
       1.56777934, 1.56879121, 1.56964268, 1.57033693, 1.57087722,
       1.5712669 , 1.57150937, 1.5716081 , 1.57156665, 1.5713886 ,
       1.5710776 , 1.57063734, 1.57007156, 1.56938402, 1.56857852,
       1.5676589 , 1.566629  , 1.56549269, 1.56425385, 1.56291638,
       1.56148418, 1.55996114, 1.55835117, 1.55665817, 1.55488603,
       1.55303862, 1.55111981, 1.54913344, 1.54708336, 1.54497337,
       1.54280724, 1.54058875, 1.53832163, 1.53600956, 1.53365624,
       1.53126528, 1.5288403 , 1.52638486, 1.52390249, 1.52139668,
       1.51887088, 1.51632852, 1.51377296, 1.51120753, 1.50863553,
       1.50606021, 1.50348478, 1.5009124 , 1.4983462 , 1.49578927,
       1.49324466, 1.49071537, 1.48820436, 1.48571457, 1.48324887,
       1.48081014, 1.47840117, 1.47602475, 1.47368362, 1.4713805 ,
       1.46911807, 1.46689898, 1.46472585, 1.46260127, 1.46052781,
       1.45850802, 1.45654442, 1.4546395 , 1.45279575, 1.45101563,
       1.4493016 , 1.44765608, 1.44608151, 1.4445803 , 1.44315486,
       1.4418076 , 1.44054092, 1.43935723, 1.43825894, 1.43724846,
       1.43632822, 1.43550065, 1.4347682 , 1.43413334, 1.43359854,
       1.43316633, 1.43283923, 1.43261981, 1.43251066, 1.43251355,
       1.43262763, 1.43285002, 1.43317807, 1.4336091 , 1.43414053,
       1.43476959, 1.4354936 , 1.43631001, 1.43721628, 1.43820983,
       1.43928809, 1.44044851, 1.44168854, 1.44300564, 1.44439725,
       1.44586084, 1.44739384, 1.44899371, 1.45065786, 1.45238371,
       1.45416867, 1.45601012, 1.45790543, 1.45985196, 1.46184703,
       1.46388794, 1.46597197, 1.46809638, 1.47025839, 1.47245519,
       1.47468394, 1.47694179, 1.47922582, 1.4815331 , 1.48386067,
       1.4862055 , 1.48856456, 1.49093476, 1.49331299, 1.49569609,
       1.49808085, 1.50046404, 1.50284238, 1.50521256, 1.50757123,
       1.50991498, 1.51224039, 1.51454398, 1.51682225, 1.51907166,
       1.52128861, 1.5234695 , 1.52561068, 1.52770846, 1.52975914,
       1.53175897, 1.53370418, 1.53559099, 1.53741556, 1.53917408,
       1.54086267, 1.54247747, 1.54401459, 1.54547013, 1.54684018,
       1.54812085, 1.5493084 , 1.55040087, 1.55139855, 1.55230237,
       1.55311325, 1.55383207, 1.55445981, 1.55499744, 1.55544595,
       1.55580637, 1.55607973, 1.55626711, 1.55636962, 1.55638836,
       1.55632447, 1.55617911, 1.55595346, 1.5556487 , 1.55526604,
       1.55480671, 1.55427195, 1.55366301, 1.55298114, 1.55222764,
       1.55140378, 1.55051086, 1.54955019, 1.54852308, 1.54743086,
       1.54627484, 1.54505637, 1.54377678, 1.54243741, 1.54103962,
       1.53958474, 1.53807413, 1.53650914, 1.53489112, 1.53322142,
       1.5315014 , 1.5297324 , 1.52791576, 1.52605284, 1.52414497,
       1.52219349, 1.52019972, 1.518165  , 1.51609065, 1.51397799,
       1.51182831, 1.50964292, 1.50742312, 1.50517019, 1.50288541,
       1.50057004, 1.49822535, 1.49585259, 1.49345299, 1.49102779,
       1.48857821, 1.48610545, 1.48361071, 1.48109518, 1.47856003,
       1.47600643, 1.47343554, 1.47084869, 1.46824759, 1.46563413,
       1.46301013, 1.46037739, 1.45773768, 1.45509275, 1.45244434,
       1.44979417, 1.44714392, 1.44449525, 1.4418498 , 1.43920919,
       1.43657501, 1.43394884, 1.43133221, 1.42872667, 1.4261337 ,
       1.4235548 , 1.42099141, 1.41844499, 1.41591694, 1.41340867,
       1.41092155, 1.40845694, 1.40601618, 1.40360059, 1.40121146,
       1.39885009, 1.39651773, 1.39421564, 1.39194505, 1.38970718,
       1.38750322, 1.38533438, 1.38320183, 1.38110671, 1.3790502 ,
       1.37703341, 1.37505748, 1.37312353, 1.37123266, 1.36938597,
       1.36758454, 1.36582946, 1.36412181, 1.36246264, 1.36085303,
       1.35929404, 1.35778672, 1.35633212, 1.3549313 , 1.3535853 ,
       1.35229517, 1.35106197, 1.34988675, 1.34877055, 1.34771445,
       1.34671949, 1.34578675, 1.34491731, 1.34411223, 1.34337261,
       1.34269955, 1.34209416, 1.34155755, 1.34109086, 1.34069523,
       1.34037182, 1.3401218 , 1.33994638, 1.33984669, 1.33982311,
       1.33987484, 1.34000076, 1.34019978, 1.34047085, 1.34081287,
       1.3412248 , 1.34170561, 1.34225433, 1.34286995, 1.34355149,
       1.34429797, 1.34510844, 1.34598194, 1.34691753, 1.34791427,
       1.34897123, 1.3500875 , 1.35126216, 1.35249429, 1.35378298,
       1.35512733, 1.35652643, 1.35797938, 1.35948528, 1.36104323,
       1.36265232, 1.36431165, 1.36602031, 1.36777739, 1.36958198,
       1.37143316, 1.37332999, 1.37527157, 1.37725694, 1.37928517,
       1.3813553 , 1.38346638, 1.38561744, 1.38780749, 1.39003556,
       1.39230063, 1.39460171, 1.39693777, 1.39930777, 1.40171067,
       1.4041454 , 1.40661088, 1.40910603, 1.41162974, 1.41418089,
       1.41675833, 1.41936092, 1.42198747, 1.4246368 , 1.42730771,
       1.42999896, 1.4327093 , 1.43543748, 1.4381822 , 1.44094217,
