{'altitude': np.float64(9.119999999999642), 'velocity': np.float64(-112.98535895245043), 'num_rockets': 8, 'volume': 150, 'parachute': {'deployed': True, 'ejected': True, 'diameter': np.float64(14.0), 'Cd': 0.615, 'cost_per_A': 1000.0, 'mass': 185.0}, 'heat_shield': {'ejected': True, 'mass': 225.0, 'diameter': 4.5, 'Cd': 0.35}, 'rocket': {'on': True, 'structure_mass': 8.0, 'initial_fuel_mass': np.float64(289.90613105855516), 'cost_per_kg': 1500, 'fuel_mass': np.float64(282.36189768656845), 'effective_exhaust_velocity': 4500.0, 'max_thrust': 3100.0, 'min_thrust': 40.0}, 'speed_control': {'on': False, 'Kp': 2000, 'Kd': 20, 'Ki': 50, 'target_velocity': -3.0}, 'position_control': {'on': False, 'Kp': 2000, 'Kd': 1000, 'Ki': 50, 'target_altitude': 7.6}, 'sky_crane': {'on': False, 'danger_altitude': 4.5, 'danger_speed': -1.0, 'mass': 35.0, 'area': 16.0, 'Cd': 0.9, 'max_cable': 7.6, 'velocity': -0.1}, 'rover': {'wheel_assembly': {'wheel': {'radius': np.float64(0.7), 'mass': 1}, 'speed_reducer': {'type': 'reverted', 'diam_pinion': 0.04, 'diam_gear': np.float64(0.054349859573537954), 'mass': 1.5}, 'motor': {'torque_stall': 165, 'torque_noload': 0, 'speed_noload': 3.85, 'mass': 5.0, 'effcy_tau': array([  0,  10,  20,  40,  75, 165]), 'effcy': array([0.  , 0.6 , 0.75, 0.73, 0.55, 0.05]), 'type': 'base', 'cost': 250000.0}}, 'chassis': {'mass': np.float64(252.02127392424518), 'type': 'magnesium', 'specific_strength': 250, 'strength': 164750}, 'science_payload': {'mass': 75}, 'power_subsys': {'mass': 90, 'battery': {'battery_type': 'LiFePO4', 'num_modules': 10, 'mass': 34.86, 'cost': 2250000.0, 'capacity': 907200.0}}, 'on_ground': False, 'telemetry': {'Time': array([0.00000000e+00, 6.74530159e-05, 1.34906032e-04, 8.09436191e-04,
       1.48396635e-03, 3.79379916e-03, 6.10363196e-03, 8.41346477e-03,
       1.82677285e-02, 2.81219922e-02, 3.79762559e-02, 6.45332932e-02,
       9.10903305e-02, 1.17647368e-01, 1.44204405e-01, 2.13059713e-01,
       2.81915020e-01, 3.50770328e-01, 4.19625636e-01, 4.88480943e-01,
       6.05804958e-01, 7.23128973e-01, 8.40452987e-01, 9.57777002e-01,
       1.07510102e+00, 1.25323510e+00, 1.43136918e+00, 1.60950327e+00,
       1.78763735e+00, 2.11823434e+00, 2.44883134e+00, 2.77942833e+00,
       3.77942833e+00, 4.77942833e+00, 5.77942833e+00, 6.77942833e+00,
       7.77942833e+00, 8.77942833e+00, 9.77942833e+00, 1.07794283e+01,
       1.17794283e+01, 1.27794283e+01, 1.37794283e+01, 1.47794283e+01,
       1.57794283e+01, 1.67794283e+01, 1.77794283e+01, 1.87794283e+01,
       1.97794283e+01, 2.07794283e+01, 2.17794283e+01, 2.27794283e+01,
       2.37794283e+01, 2.47794283e+01, 2.57794283e+01, 2.67794283e+01,
       2.77794283e+01, 2.87794283e+01, 2.97794283e+01, 3.07794283e+01,
       3.17794283e+01, 3.27794283e+01, 3.37794283e+01, 3.47794283e+01,
       3.57794283e+01, 3.67794283e+01, 3.77794283e+01, 3.87794283e+01,
       3.97794283e+01, 4.07794283e+01, 4.17794283e+01, 4.27794283e+01,
       4.37794283e+01, 4.47794283e+01, 4.57794283e+01, 4.67794283e+01,
       4.77794283e+01, 4.87794283e+01, 4.97794283e+01, 5.07794283e+01,
       5.17794283e+01, 5.27794283e+01, 5.37794283e+01, 5.47794283e+01,
       5.57794283e+01, 5.67794283e+01, 5.77794283e+01, 5.87794283e+01,
       5.97794283e+01, 6.07794283e+01, 6.17794283e+01, 6.27794283e+01,
       6.37794283e+01, 6.47794283e+01, 6.57794283e+01, 6.67794283e+01,
       6.77794283e+01, 6.87794283e+01, 6.97794283e+01, 7.07794283e+01,
       7.17794283e+01, 7.27794283e+01, 7.37794283e+01, 7.47794283e+01,
       7.57794283e+01, 7.67794283e+01, 7.77794283e+01, 7.87794283e+01,
       7.97794283e+01, 8.07794283e+01, 8.17794283e+01, 8.27794283e+01,
       8.37794283e+01, 8.47794283e+01, 8.57794283e+01, 8.67794283e+01,
       8.77794283e+01, 8.87794283e+01, 8.97794283e+01, 9.07794283e+01,
       9.17794283e+01, 9.27794283e+01, 9.37794283e+01, 9.47794283e+01,
       9.57794283e+01, 9.67794283e+01, 9.77794283e+01, 9.87794283e+01,
       9.97794283e+01, 1.00779428e+02, 1.01779428e+02, 1.02779428e+02,
       1.03779428e+02, 1.04779428e+02, 1.05779428e+02, 1.06779428e+02,
       1.07779428e+02, 1.08779428e+02, 1.09779428e+02, 1.10779428e+02,
       1.11779428e+02, 1.12779428e+02, 1.13779428e+02, 1.14779428e+02,
       1.15779428e+02, 1.16779428e+02, 1.17779428e+02, 1.18779428e+02,
       1.19779428e+02, 1.20779428e+02, 1.21779428e+02, 1.22779428e+02,
       1.23779428e+02, 1.24779428e+02, 1.25779428e+02, 1.26779428e+02,
       1.27779428e+02, 1.28779428e+02, 1.29779428e+02, 1.30779428e+02,
       1.31779428e+02, 1.32779428e+02, 1.33779428e+02, 1.34779428e+02,
       1.35779428e+02, 1.36779428e+02, 1.37779428e+02, 1.38779428e+02,
       1.39779428e+02, 1.40779428e+02, 1.41779428e+02, 1.42779428e+02,
       1.43779428e+02, 1.44779428e+02, 1.45779428e+02, 1.46779428e+02,
       1.47779428e+02, 1.48779428e+02, 1.49779428e+02, 1.50779428e+02,
       1.51779428e+02, 1.52779428e+02, 1.53779428e+02, 1.54779428e+02,
       1.55779428e+02, 1.56779428e+02, 1.57779428e+02, 1.58779428e+02,
       1.59779428e+02, 1.60779428e+02, 1.61779428e+02, 1.62779428e+02,
       1.63779428e+02, 1.64779428e+02, 1.65779428e+02, 1.66779428e+02,
       1.67779428e+02, 1.68779428e+02, 1.69779428e+02, 1.70779428e+02,
       1.71779428e+02, 1.72779428e+02, 1.73779428e+02, 1.74779428e+02,
       1.75779428e+02, 1.76779428e+02, 1.77779428e+02, 1.78779428e+02,
       1.79779428e+02, 1.80779428e+02, 1.81779428e+02, 1.82779428e+02,
       1.83779428e+02, 1.84779428e+02, 1.85779428e+02, 1.86779428e+02,
       1.87779428e+02, 1.88779428e+02, 1.89779428e+02, 1.90779428e+02,
       1.91779428e+02, 1.92779428e+02, 1.93779428e+02, 1.94779428e+02,
       1.95779428e+02, 1.96779428e+02, 1.97779428e+02, 1.98779428e+02,
       1.99779428e+02, 2.00779428e+02, 2.01779428e+02, 2.02779428e+02,
       2.03779428e+02, 2.04779428e+02, 2.05779428e+02, 2.06779428e+02,
       2.07779428e+02, 2.08779428e+02, 2.09779428e+02, 2.10779428e+02,
       2.11779428e+02, 2.12779428e+02, 2.13779428e+02, 2.14779428e+02,
       2.15779428e+02, 2.16779428e+02, 2.17779428e+02, 2.18779428e+02,
       2.19779428e+02, 2.20779428e+02, 2.21779428e+02, 2.22779428e+02,
       2.23779428e+02, 2.24779428e+02, 2.25779428e+02, 2.26779428e+02,
       2.27779428e+02, 2.28779428e+02, 2.29779428e+02, 2.30779428e+02,
       2.31779428e+02, 2.32779428e+02, 2.33779428e+02, 2.34779428e+02,
       2.35779428e+02, 2.36779428e+02, 2.37779428e+02, 2.38779428e+02,
       2.39779428e+02, 2.40779428e+02, 2.41779428e+02, 2.42779428e+02,
       2.43779428e+02, 2.44779428e+02, 2.45779428e+02, 2.46779428e+02,
       2.47779428e+02, 2.48779428e+02, 2.49779428e+02, 2.50779428e+02,
       2.51779428e+02, 2.52779428e+02, 2.53779428e+02, 2.54779428e+02,
       2.55779428e+02, 2.56779428e+02, 2.57779428e+02, 2.58779428e+02,
       2.59779428e+02, 2.60779428e+02, 2.61779428e+02, 2.62779428e+02,
       2.63779428e+02, 2.64779428e+02, 2.65779428e+02, 2.66779428e+02,
       2.67779428e+02, 2.68779428e+02, 2.69779428e+02, 2.70779428e+02,
       2.71779428e+02, 2.72779428e+02, 2.73779428e+02, 2.74779428e+02,
       2.75779428e+02, 2.76779428e+02, 2.77779428e+02, 2.78779428e+02,
       2.79779428e+02, 2.80779428e+02, 2.81779428e+02, 2.82779428e+02,
       2.83779428e+02, 2.84779428e+02, 2.85779428e+02, 2.86779428e+02,
       2.87779428e+02, 2.88779428e+02, 2.89779428e+02, 2.90779428e+02,
       2.91779428e+02, 2.92779428e+02, 2.93779428e+02, 2.94779428e+02,
       2.95779428e+02, 2.96779428e+02, 2.97779428e+02, 2.98779428e+02,
       2.99779428e+02, 3.00779428e+02, 3.01779428e+02, 3.02779428e+02,
       3.03779428e+02, 3.04779428e+02, 3.05779428e+02, 3.06779428e+02,
       3.07779428e+02, 3.08779428e+02, 3.09779428e+02, 3.10779428e+02,
       3.11779428e+02, 3.12779428e+02, 3.13779428e+02, 3.14779428e+02,
       3.15779428e+02, 3.16779428e+02, 3.17779428e+02, 3.18779428e+02,
       3.19779428e+02, 3.20779428e+02, 3.21779428e+02, 3.22779428e+02,
       3.23779428e+02, 3.24779428e+02, 3.25779428e+02, 3.26779428e+02,
       3.27779428e+02, 3.28779428e+02, 3.29779428e+02, 3.30779428e+02,
       3.31779428e+02, 3.32779428e+02, 3.33779428e+02, 3.34779428e+02,
       3.35779428e+02, 3.36779428e+02, 3.37779428e+02, 3.38779428e+02,
       3.39779428e+02, 3.40779428e+02, 3.41779428e+02, 3.42779428e+02,
       3.43779428e+02, 3.44779428e+02, 3.45779428e+02, 3.46779428e+02,
       3.47779428e+02, 3.48779428e+02, 3.49779428e+02, 3.50779428e+02,
       3.51779428e+02, 3.52779428e+02, 3.53779428e+02, 3.54779428e+02,
       3.55779428e+02, 3.56779428e+02, 3.57779428e+02, 3.58779428e+02,
       3.59779428e+02, 3.60779428e+02, 3.61779428e+02, 3.62779428e+02,
       3.63779428e+02, 3.64779428e+02, 3.65779428e+02, 3.66779428e+02,
       3.67779428e+02, 3.68779428e+02, 3.69779428e+02, 3.70779428e+02,
       3.71779428e+02, 3.72779428e+02, 3.73779428e+02, 3.74779428e+02,
       3.75779428e+02, 3.76779428e+02, 3.77779428e+02, 3.78779428e+02,
       3.79779428e+02, 3.80779428e+02, 3.81779428e+02, 3.82779428e+02,
       3.83779428e+02, 3.84779428e+02, 3.85779428e+02, 3.86779428e+02,
       3.87779428e+02, 3.88779428e+02, 3.89779428e+02, 3.90779428e+02,
       3.91779428e+02, 3.92779428e+02, 3.93779428e+02, 3.94779428e+02,
       3.95779428e+02, 3.96779428e+02, 3.97779428e+02, 3.98779428e+02,
       3.99779428e+02, 4.00779428e+02, 4.01779428e+02, 4.02779428e+02,
       4.03779428e+02, 4.04779428e+02, 4.05779428e+02, 4.06779428e+02,
       4.07779428e+02, 4.08779428e+02, 4.09779428e+02, 4.10779428e+02,
       4.11779428e+02, 4.12779428e+02, 4.13779428e+02, 4.14779428e+02,
       4.15779428e+02, 4.16779428e+02, 4.17779428e+02, 4.18779428e+02,
       4.19779428e+02, 4.20779428e+02, 4.21779428e+02, 4.22779428e+02,
       4.23779428e+02, 4.24779428e+02, 4.25779428e+02, 4.26779428e+02,
       4.27779428e+02, 4.28779428e+02, 4.29779428e+02, 4.30779428e+02,
       4.31779428e+02, 4.32779428e+02, 4.33779428e+02, 4.34779428e+02,
       4.35779428e+02, 4.36779428e+02, 4.37779428e+02, 4.38779428e+02,
       4.39779428e+02, 4.40779428e+02, 4.41779428e+02, 4.42779428e+02,
       4.43779428e+02, 4.44779428e+02, 4.45779428e+02, 4.46779428e+02,
       4.47779428e+02, 4.48779428e+02, 4.49779428e+02, 4.50779428e+02,
       4.51779428e+02, 4.52779428e+02, 4.53779428e+02, 4.54779428e+02,
       4.55779428e+02, 4.56779428e+02, 4.57779428e+02, 4.58779428e+02,
       4.59779428e+02, 4.60779428e+02, 4.61779428e+02, 4.62779428e+02,
       4.63779428e+02, 4.64779428e+02, 4.65779428e+02, 4.66779428e+02,
       4.67779428e+02, 4.68779428e+02, 4.69779428e+02, 4.70779428e+02,
       4.71779428e+02, 4.72779428e+02, 4.73779428e+02, 4.74779428e+02,
       4.75779428e+02, 4.76779428e+02, 4.77779428e+02, 4.78779428e+02,
       4.79779428e+02, 4.80779428e+02, 4.81779428e+02, 4.82779428e+02,
       4.83779428e+02, 4.84779428e+02, 4.85779428e+02, 4.86779428e+02,
       4.87779428e+02, 4.88779428e+02, 4.89779428e+02, 4.90779428e+02,
       4.91779428e+02, 4.92779428e+02, 4.93779428e+02, 4.94779428e+02,
       4.95779428e+02, 4.96779428e+02, 4.97779428e+02, 4.98779428e+02,
       4.99779428e+02, 5.00779428e+02, 5.01779428e+02, 5.02779428e+02,
       5.03779428e+02, 5.04779428e+02, 5.05779428e+02, 5.06779428e+02,
       5.07779428e+02, 5.08779428e+02, 5.09779428e+02, 5.10779428e+02,
       5.11779428e+02, 5.12779428e+02, 5.13779428e+02, 5.14779428e+02,
       5.15779428e+02, 5.16779428e+02, 5.17779428e+02, 5.18779428e+02,
       5.19779428e+02, 5.20779428e+02, 5.21779428e+02, 5.22779428e+02,
       5.23779428e+02, 5.24779428e+02, 5.25779428e+02, 5.26779428e+02,
       5.27779428e+02, 5.28779428e+02, 5.29779428e+02, 5.30779428e+02,
       5.31779428e+02, 5.32779428e+02, 5.33779428e+02, 5.34779428e+02,
       5.35779428e+02, 5.36779428e+02, 5.37779428e+02, 5.38779428e+02,
       5.39779428e+02, 5.40779428e+02, 5.41779428e+02, 5.42779428e+02,
       5.43779428e+02, 5.44779428e+02, 5.45779428e+02, 5.46779428e+02,
       5.47779428e+02, 5.48779428e+02, 5.49779428e+02, 5.50779428e+02,
       5.51779428e+02, 5.52779428e+02, 5.53779428e+02, 5.54779428e+02,
       5.55779428e+02, 5.56779428e+02, 5.57779428e+02, 5.58779428e+02,
       5.59779428e+02, 5.60779428e+02, 5.61779428e+02, 5.62779428e+02,
       5.63779428e+02, 5.64779428e+02, 5.65779428e+02, 5.66779428e+02,
       5.67779428e+02, 5.68779428e+02, 5.69779428e+02, 5.70779428e+02,
       5.71779428e+02, 5.72779428e+02, 5.73779428e+02, 5.74779428e+02,
       5.75779428e+02, 5.76779428e+02, 5.77779428e+02, 5.78779428e+02,
       5.79779428e+02, 5.80779428e+02, 5.81779428e+02, 5.82779428e+02,
       5.83779428e+02, 5.84779428e+02, 5.85779428e+02, 5.86779428e+02,
       5.87779428e+02, 5.88779428e+02, 5.89779428e+02, 5.90779428e+02,
       5.91779428e+02, 5.92779428e+02, 5.93779428e+02, 5.94779428e+02,
       5.95779428e+02, 5.96779428e+02, 5.97779428e+02, 5.98779428e+02,
       5.99779428e+02, 6.00779428e+02, 6.01779428e+02, 6.02779428e+02,
       6.03779428e+02, 6.04779428e+02, 6.05779428e+02, 6.06779428e+02,
       6.07779428e+02, 6.08779428e+02, 6.09779428e+02, 6.10779428e+02,
       6.11779428e+02, 6.12779428e+02, 6.13779428e+02, 6.14779428e+02,
       6.15779428e+02, 6.16779428e+02, 6.17779428e+02, 6.18779428e+02,
       6.19779428e+02, 6.20779428e+02, 6.21779428e+02, 6.22779428e+02,
       6.23779428e+02, 6.24779428e+02, 6.25779428e+02, 6.26779428e+02,
       6.27779428e+02, 6.28779428e+02, 6.29779428e+02, 6.30779428e+02,
       6.31779428e+02, 6.32779428e+02, 6.33779428e+02, 6.34779428e+02,
       6.35779428e+02, 6.36779428e+02, 6.37779428e+02, 6.38779428e+02,
       6.39779428e+02, 6.40779428e+02, 6.41779428e+02, 6.42779428e+02,
       6.43779428e+02, 6.44779428e+02, 6.45779428e+02, 6.46779428e+02,
       6.47779428e+02, 6.48779428e+02, 6.49779428e+02, 6.50779428e+02,
       6.51779428e+02, 6.52779428e+02, 6.53779428e+02, 6.54779428e+02,
       6.55779428e+02, 6.56779428e+02, 6.57779428e+02, 6.58779428e+02,
       6.59779428e+02, 6.60779428e+02, 6.61779428e+02, 6.62779428e+02,
       6.63779428e+02, 6.64779428e+02, 6.65779428e+02, 6.66779428e+02,
       6.67779428e+02, 6.68779428e+02, 6.69779428e+02, 6.70779428e+02,
       6.71779428e+02, 6.72779428e+02, 6.73779428e+02, 6.74779428e+02,
       6.75779428e+02, 6.76779428e+02, 6.77779428e+02, 6.78779428e+02,
       6.79779428e+02, 6.80779428e+02, 6.81779428e+02, 6.82779428e+02,
       6.83779428e+02, 6.84779428e+02, 6.85779428e+02, 6.86779428e+02,
       6.87779428e+02, 6.88779428e+02, 6.89779428e+02, 6.90779428e+02,
       6.91779428e+02, 6.92779428e+02, 6.93779428e+02, 6.94779428e+02,
       6.95779428e+02, 6.96779428e+02, 6.97779428e+02, 6.98779428e+02,
       6.99779428e+02, 7.00779428e+02, 7.01779428e+02, 7.02779428e+02,
       7.03779428e+02, 7.04779428e+02, 7.05779428e+02, 7.06779428e+02,
       7.07779428e+02, 7.08779428e+02, 7.09779428e+02, 7.10779428e+02,
       7.11779428e+02, 7.12779428e+02, 7.13779428e+02, 7.14779428e+02,
       7.15779428e+02, 7.16779428e+02, 7.17779428e+02, 7.18779428e+02,
       7.19779428e+02, 7.20779428e+02, 7.21779428e+02, 7.22779428e+02,
       7.23779428e+02, 7.24779428e+02, 7.25779428e+02, 7.26779428e+02,
       7.27779428e+02, 7.28779428e+02, 7.29779428e+02, 7.30779428e+02,
       7.31779428e+02, 7.32779428e+02, 7.33779428e+02, 7.34779428e+02,
       7.35779428e+02, 7.36779428e+02, 7.37779428e+02, 7.38779428e+02,
       7.39779428e+02, 7.40779428e+02, 7.41779428e+02, 7.42779428e+02,
       7.43779428e+02, 7.44779428e+02, 7.45779428e+02, 7.46779428e+02,
       7.47779428e+02, 7.48779428e+02, 7.49779428e+02, 7.50779428e+02,
       7.51779428e+02, 7.52779428e+02, 7.53779428e+02, 7.54779428e+02,
       7.55779428e+02, 7.56779428e+02, 7.57779428e+02, 7.58779428e+02,
       7.59779428e+02, 7.60779428e+02, 7.61779428e+02, 7.62779428e+02,
       7.63779428e+02, 7.64779428e+02, 7.65779428e+02, 7.66779428e+02,
       7.67779428e+02, 7.68779428e+02, 7.69779428e+02, 7.70033941e+02]), 'completion_time': np.float64(770.0339412459829), 'velocity': array([0.3125    , 0.3127096 , 0.31291916, 0.31501032, 0.31709654,
       0.32420556, 0.3312575 , 0.33825156, 0.36745025, 0.39563346,
       0.42283467, 0.49150647, 0.55391248, 0.61063365, 0.66219305,
       0.77510583, 0.86332431, 0.93222853, 0.98604956, 1.02811755,
       1.07993652, 1.11419812, 1.13681706, 1.15177512, 1.16177143,
       1.17093407, 1.17630768, 1.17977679, 1.18216342, 1.18525218,
       1.18742573, 1.18934717, 1.19506505, 1.20069752, 1.20624202,
       1.21168756, 1.21703466, 1.222285  , 1.22743807, 1.23249244,
       1.23744674, 1.24229978, 1.2470505 , 1.25169794, 1.25624115,
       1.26067925, 1.26501148, 1.26923717, 1.27335571, 1.27736656,
       1.2812693 , 1.28506354, 1.28874901, 1.29232549, 1.29579284,
       1.29915101, 1.30240001, 1.30553993, 1.30857093, 1.31149323,
       1.31430715, 1.31701304, 1.31961135, 1.32210257, 1.32448727,
       1.32676608, 1.32893967, 1.33100881, 1.3329743 , 1.33483698,
       1.33659778, 1.33825767, 1.33981765, 1.3412788 , 1.34264223,
       1.34390909, 1.34508059, 1.34615796, 1.3471425 , 1.34803553,
       1.3488384 , 1.3495525 , 1.35017927, 1.35072016, 1.35117666,
       1.35155029, 1.35184258, 1.35205511, 1.35218947, 1.35224726,
       1.35223014, 1.35213973, 1.35197772, 1.35174579, 1.35144564,
       1.35107899, 1.35064754, 1.35015305, 1.34959725, 1.34898189,
       1.34830874, 1.34757955, 1.34679609, 1.34596014, 1.34507346,
       1.34413782, 1.34315501, 1.34212678, 1.34105492, 1.33994118,
       1.33878733, 1.33759514, 1.33636634, 1.33510268, 1.33380592,
       1.33247776, 1.33111995, 1.3297342 , 1.3283222 , 1.32688566,
       1.32542625, 1.32394565, 1.32244553, 1.32092753, 1.31939328,
       1.31784442, 1.31628256, 1.31470929, 1.31312619, 1.31153485,
       1.30993682, 1.30833364, 1.30672684, 1.30511793, 1.30350843,
       1.30189981, 1.30029355, 1.29869111, 1.29709393, 1.29550345,
       1.29392108, 1.29234823, 1.29078628, 1.28923661, 1.28770059,
       1.28617956, 1.28467488, 1.28318785, 1.2817198 , 1.28027203,
       1.27884583, 1.27744248, 1.27606325, 1.2747094 , 1.27338219,
       1.27208286, 1.27081263, 1.26957274, 1.2683644 , 1.26718883,
       1.26604723, 1.2649408 , 1.26387074, 1.26283823, 1.26184446,
       1.26089061, 1.25997788, 1.25910742, 1.25828043, 1.25749809,
       1.25676156, 1.25607204, 1.2554307 , 1.25483873, 1.25429732,
       1.25380766, 1.25337095, 1.25298841, 1.25266124, 1.25239067,
       1.25217793, 1.25202427, 1.25193093, 1.25189913, 1.25192915,
       1.25201998, 1.25217013, 1.25237834, 1.25264336, 1.25296389,
       1.2533386 , 1.2537662 , 1.25424544, 1.25477507, 1.25535383,
       1.25598046, 1.25665372, 1.25737236, 1.25813512, 1.25894078,
       1.25978809, 1.26067579, 1.26160266, 1.26256743, 1.26356886,
       1.26460569, 1.26567667, 1.26678054, 1.26791602, 1.26908184,
       1.27027672, 1.27149937, 1.27274849, 1.27402278, 1.27532093,
       1.27664162, 1.27798351, 1.27934525, 1.2807255 , 1.28212289,
       1.28353605, 1.28496359, 1.2864041 , 1.28785619, 1.28931841,
       1.29078935, 1.29226754, 1.29375153, 1.29523984, 1.29673097,
       1.29822344, 1.29971571, 1.30120626, 1.30269355, 1.30417601,
       1.30565209, 1.30712019, 1.30857871, 1.31002605, 1.31146059,
       1.31288068, 1.31428467, 1.31567092, 1.31703774, 1.31838345,
       1.31970636, 1.32100476, 1.32227693, 1.32352116, 1.3247357 ,
       1.32591881, 1.32706875, 1.32818375, 1.32926205, 1.33030188,
       1.33130146, 1.33225902, 1.33317278, 1.33404095, 1.33486174,
       1.33563336, 1.33635424, 1.33702388, 1.33764264, 1.33821103,
       1.33872946, 1.33919832, 1.33961807, 1.33998917, 1.34031209,
       1.34058731, 1.34081529, 1.34099654, 1.34113158, 1.34122088,
       1.34126498, 1.34126439, 1.34121964, 1.34113126, 1.3409998 ,
       1.3408258 , 1.34060981, 1.3403524 , 1.34005412, 1.33971554,
       1.33933723, 1.33891978, 1.33846375, 1.33796974, 1.33743833,
       1.33687011, 1.33626568, 1.33562563, 1.33495056, 1.33424107,
       1.33349776, 1.33272124, 1.33191212, 1.331071  , 1.33019849,
