{'altitude': np.float64(7.597923986914879), 'velocity': np.float64(5.256396772290362e-05), 'num_rockets': 8, 'volume': 150, 'parachute': {'deployed': True, 'ejected': True, 'diameter': np.float64(14.001816026550845), 'Cd': 0.615, 'cost_per_A': 1000.0, 'mass': 185.0}, 'heat_shield': {'ejected': True, 'mass': 225.0, 'diameter': 4.5, 'Cd': 0.35}, 'rocket': {'on': True, 'structure_mass': 8.0, 'initial_fuel_mass': np.float64(100.0690090089321), 'cost_per_kg': 1500, 'fuel_mass': np.float64(33.16188044917763), 'effective_exhaust_velocity': 4500.0, 'max_thrust': 3100.0, 'min_thrust': 40.0}, 'speed_control': {'on': False, 'Kp': 2000, 'Kd': 20, 'Ki': 50, 'target_velocity': -3.0}, 'position_control': {'on': True, 'Kp': 2000, 'Kd': 1000, 'Ki': 50, 'target_altitude': 7.6}, 'sky_crane': {'on': False, 'danger_altitude': 4.5, 'danger_speed': -1.0, 'mass': 35.0, 'area': 16.0, 'Cd': 0.9, 'max_cable': 7.6, 'velocity': -0.1}, 'rover': {'wheel_assembly': {'wheel': {'radius': np.float64(0.6998183973449155), 'mass': 1}, 'speed_reducer': {'type': 'reverted', 'diam_pinion': 0.04, 'diam_gear': np.float64(0.050025424371711834), 'mass': 1.5}, 'motor': {'torque_stall': 165, 'torque_noload': 0, 'speed_noload': 3.85, 'mass': 5.0, 'effcy_tau': array([  0.  ,  11.5 ,  23.  ,  46.  ,  86.25, 189.75]), 'effcy': array([0.    , 0.69  , 0.8625, 0.8395, 0.6325, 0.0575]), 'type': 'base_he', 'cost': 280000.0}}, 'chassis': {'mass': np.float64(250.1428685095276), 'type': 'magnesium', 'specific_strength': 250, 'strength': 164750}, 'science_payload': {'mass': 75}, 'power_subsys': {'mass': 90, 'battery': {'battery_type': 'NiCD', 'num_modules': 10, 'mass': 6.69, 'cost': 250000, 'capacity': 90600.0}}, 'on_ground': True, 'telemetry': {'Time': array([0.00000000e+00, 7.03432944e-05, 1.40686589e-04, 8.44119533e-04,
       1.54755248e-03, 3.96396030e-03, 6.38036812e-03, 8.79677595e-03,
       1.88298758e-02, 2.88629756e-02, 3.88960755e-02, 6.73894255e-02,
       9.58827755e-02, 1.24376126e-01, 1.52869476e-01, 2.27868441e-01,
       3.02867407e-01, 3.77866373e-01, 4.52865339e-01, 5.27864305e-01,
       6.69131380e-01, 8.10398455e-01, 9.51665530e-01, 1.09293261e+00,
       1.23419968e+00, 1.44144121e+00, 1.64868275e+00, 1.85592428e+00,
       2.06316581e+00, 2.27040735e+00, 2.66609807e+00, 3.06178879e+00,
       3.45747951e+00, 3.85317023e+00, 4.85317023e+00, 5.85317023e+00,
       6.85317023e+00, 7.85317023e+00, 8.85317023e+00, 9.85317023e+00,
       1.08531702e+01, 1.18531702e+01, 1.28531702e+01, 1.38531702e+01,
       1.48531702e+01, 1.58531702e+01, 1.68531702e+01, 1.78531702e+01,
       1.88531702e+01, 1.98531702e+01, 2.08531702e+01, 2.18531702e+01,
       2.28531702e+01, 2.38531702e+01, 2.48531702e+01, 2.58531702e+01,
       2.68531702e+01, 2.78531702e+01, 2.88531702e+01, 2.98531702e+01,
       3.08531702e+01, 3.18531702e+01, 3.28531702e+01, 3.38531702e+01,
       3.48531702e+01, 3.58531702e+01, 3.68531702e+01, 3.78531702e+01,
       3.88531702e+01, 3.98531702e+01, 4.08531702e+01, 4.18531702e+01,
       4.28531702e+01, 4.38531702e+01, 4.48531702e+01, 4.58531702e+01,
       4.68531702e+01, 4.78531702e+01, 4.88531702e+01, 4.98531702e+01,
       5.08531702e+01, 5.18531702e+01, 5.28531702e+01, 5.38531702e+01,
       5.48531702e+01, 5.58531702e+01, 5.68531702e+01, 5.78531702e+01,
       5.88531702e+01, 5.98531702e+01, 6.08531702e+01, 6.18531702e+01,
       6.28531702e+01, 6.38531702e+01, 6.48531702e+01, 6.58531702e+01,
       6.68531702e+01, 6.78531702e+01, 6.88531702e+01, 6.98531702e+01,
       7.08531702e+01, 7.18531702e+01, 7.28531702e+01, 7.38531702e+01,
       7.48531702e+01, 7.58531702e+01, 7.68531702e+01, 7.78531702e+01,
       7.88531702e+01, 7.98531702e+01, 8.08531702e+01, 8.18531702e+01,
       8.28531702e+01, 8.38531702e+01, 8.48531702e+01, 8.58531702e+01,
       8.68531702e+01, 8.78531702e+01, 8.88531702e+01, 8.98531702e+01,
       9.08531702e+01, 9.18531702e+01, 9.28531702e+01, 9.38531702e+01,
       9.48531702e+01, 9.58531702e+01, 9.68531702e+01, 9.78531702e+01,
       9.88531702e+01, 9.98531702e+01, 1.00853170e+02, 1.01853170e+02,
       1.02853170e+02, 1.03853170e+02, 1.04853170e+02, 1.05853170e+02,
       1.06853170e+02, 1.07853170e+02, 1.08853170e+02, 1.09853170e+02,
       1.10853170e+02, 1.11853170e+02, 1.12853170e+02, 1.13853170e+02,
       1.14853170e+02, 1.15853170e+02, 1.16853170e+02, 1.17853170e+02,
       1.18853170e+02, 1.19853170e+02, 1.20853170e+02, 1.21853170e+02,
       1.22853170e+02, 1.23853170e+02, 1.24853170e+02, 1.25853170e+02,
       1.26853170e+02, 1.27853170e+02, 1.28853170e+02, 1.29853170e+02,
       1.30853170e+02, 1.31853170e+02, 1.32853170e+02, 1.33853170e+02,
       1.34853170e+02, 1.35853170e+02, 1.36853170e+02, 1.37853170e+02,
       1.38853170e+02, 1.39853170e+02, 1.40853170e+02, 1.41853170e+02,
       1.42853170e+02, 1.43853170e+02, 1.44853170e+02, 1.45853170e+02,
       1.46853170e+02, 1.47853170e+02, 1.48853170e+02, 1.49853170e+02,
       1.50853170e+02, 1.51853170e+02, 1.52853170e+02, 1.53853170e+02,
       1.54853170e+02, 1.55853170e+02, 1.56853170e+02, 1.57853170e+02,
       1.58853170e+02, 1.59853170e+02, 1.60853170e+02, 1.61853170e+02,
       1.62853170e+02, 1.63853170e+02, 1.64853170e+02, 1.65853170e+02,
       1.66853170e+02, 1.67853170e+02, 1.68853170e+02, 1.69853170e+02,
       1.70853170e+02, 1.71853170e+02, 1.72853170e+02, 1.73853170e+02,
       1.74853170e+02, 1.75853170e+02, 1.76853170e+02, 1.77853170e+02,
       1.78853170e+02, 1.79853170e+02, 1.80853170e+02, 1.81853170e+02,
       1.82853170e+02, 1.83853170e+02, 1.84853170e+02, 1.85853170e+02,
       1.86853170e+02, 1.87853170e+02, 1.88853170e+02, 1.89853170e+02,
       1.90853170e+02, 1.91853170e+02, 1.92853170e+02, 1.93853170e+02,
       1.94853170e+02, 1.95853170e+02, 1.96853170e+02, 1.97853170e+02,
       1.98853170e+02, 1.99853170e+02, 2.00853170e+02, 2.01853170e+02,
       2.02853170e+02, 2.03853170e+02, 2.04853170e+02, 2.05853170e+02,
       2.06853170e+02, 2.07853170e+02, 2.08853170e+02, 2.09853170e+02,
       2.10853170e+02, 2.11853170e+02, 2.12853170e+02, 2.13853170e+02,
       2.14853170e+02, 2.15853170e+02, 2.16853170e+02, 2.17853170e+02,
       2.18853170e+02, 2.19853170e+02, 2.20853170e+02, 2.21853170e+02,
       2.22853170e+02, 2.23853170e+02, 2.24853170e+02, 2.25853170e+02,
       2.26853170e+02, 2.27853170e+02, 2.28853170e+02, 2.29853170e+02,
       2.30853170e+02, 2.31853170e+02, 2.32853170e+02, 2.33853170e+02,
       2.34853170e+02, 2.35853170e+02, 2.36853170e+02, 2.37853170e+02,
       2.38853170e+02, 2.39853170e+02, 2.40853170e+02, 2.41853170e+02,
       2.42853170e+02, 2.43853170e+02, 2.44853170e+02, 2.45853170e+02,
       2.46853170e+02, 2.47853170e+02, 2.48853170e+02, 2.49853170e+02,
       2.50853170e+02, 2.51853170e+02, 2.52853170e+02, 2.53853170e+02,
       2.54853170e+02, 2.55853170e+02, 2.56853170e+02, 2.57853170e+02,
       2.58853170e+02, 2.59853170e+02, 2.60853170e+02, 2.61853170e+02,
       2.62853170e+02, 2.63853170e+02, 2.64853170e+02, 2.65853170e+02,
       2.66853170e+02, 2.67853170e+02, 2.68853170e+02, 2.69853170e+02,
       2.70853170e+02, 2.71853170e+02, 2.72853170e+02, 2.73853170e+02,
       2.74853170e+02, 2.75853170e+02, 2.76853170e+02, 2.77853170e+02,
       2.78853170e+02, 2.79853170e+02, 2.80853170e+02, 2.81853170e+02,
       2.82853170e+02, 2.83853170e+02, 2.84853170e+02, 2.85853170e+02,
       2.86853170e+02, 2.87853170e+02, 2.88853170e+02, 2.89853170e+02,
       2.90853170e+02, 2.91853170e+02, 2.92853170e+02, 2.93853170e+02,
       2.94853170e+02, 2.95853170e+02, 2.96853170e+02, 2.97853170e+02,
       2.98853170e+02, 2.99853170e+02, 3.00853170e+02, 3.01853170e+02,
       3.02853170e+02, 3.03853170e+02, 3.04853170e+02, 3.05853170e+02,
       3.06853170e+02, 3.07853170e+02, 3.08853170e+02, 3.09853170e+02,
       3.10853170e+02, 3.11853170e+02, 3.12853170e+02, 3.13853170e+02,
       3.14853170e+02, 3.15853170e+02, 3.16853170e+02, 3.17853170e+02,
       3.18853170e+02, 3.19853170e+02, 3.20853170e+02, 3.21853170e+02,
       3.22853170e+02, 3.23853170e+02, 3.24853170e+02, 3.25853170e+02,
       3.26853170e+02, 3.27853170e+02, 3.28853170e+02, 3.29853170e+02,
       3.30853170e+02, 3.31853170e+02, 3.32853170e+02, 3.33853170e+02,
       3.34853170e+02, 3.35853170e+02, 3.36853170e+02, 3.37853170e+02,
       3.38853170e+02, 3.39853170e+02, 3.40853170e+02, 3.41853170e+02,
       3.42853170e+02, 3.43853170e+02, 3.44853170e+02, 3.45853170e+02,
       3.46853170e+02, 3.47853170e+02, 3.48853170e+02, 3.49853170e+02,
       3.50853170e+02, 3.51853170e+02, 3.52853170e+02, 3.53853170e+02,
       3.54853170e+02, 3.55853170e+02, 3.56853170e+02, 3.57853170e+02,
       3.58853170e+02, 3.59853170e+02, 3.60853170e+02, 3.61853170e+02,
       3.62853170e+02, 3.63853170e+02, 3.64853170e+02, 3.65853170e+02,
       3.66853170e+02, 3.67853170e+02, 3.68853170e+02, 3.69853170e+02,
       3.70853170e+02, 3.71853170e+02, 3.72853170e+02, 3.73853170e+02,
       3.74853170e+02, 3.75853170e+02, 3.76853170e+02, 3.77853170e+02,
       3.78853170e+02, 3.79853170e+02, 3.80853170e+02, 3.81853170e+02,
       3.82853170e+02, 3.83853170e+02, 3.84853170e+02, 3.85853170e+02,
       3.86853170e+02, 3.87853170e+02, 3.88853170e+02, 3.89853170e+02,
       3.90853170e+02, 3.91853170e+02, 3.92853170e+02, 3.93853170e+02,
       3.94853170e+02, 3.95853170e+02, 3.96853170e+02, 3.97853170e+02,
       3.98853170e+02, 3.99853170e+02, 4.00853170e+02, 4.01853170e+02,
       4.02853170e+02, 4.03853170e+02, 4.04853170e+02, 4.05853170e+02,
       4.06853170e+02, 4.07853170e+02, 4.08853170e+02, 4.09853170e+02,
       4.10853170e+02, 4.11853170e+02, 4.12853170e+02, 4.13853170e+02,
       4.14853170e+02, 4.15853170e+02, 4.16853170e+02, 4.17853170e+02,
       4.18853170e+02, 4.19853170e+02, 4.20853170e+02, 4.21853170e+02,
       4.22853170e+02, 4.23853170e+02, 4.24853170e+02, 4.25853170e+02,
       4.26853170e+02, 4.27853170e+02, 4.28853170e+02, 4.29853170e+02,
       4.30853170e+02, 4.31853170e+02, 4.32853170e+02, 4.33853170e+02,
       4.34853170e+02, 4.35853170e+02, 4.36853170e+02, 4.37853170e+02,
       4.38853170e+02, 4.39853170e+02, 4.40853170e+02, 4.41853170e+02,
       4.42853170e+02, 4.43853170e+02, 4.44853170e+02, 4.45853170e+02,
       4.46853170e+02, 4.47853170e+02, 4.48853170e+02, 4.49853170e+02,
       4.50853170e+02, 4.51853170e+02, 4.52853170e+02, 4.53853170e+02,
       4.54853170e+02, 4.55853170e+02, 4.56853170e+02, 4.57853170e+02,
       4.58853170e+02, 4.59853170e+02, 4.60853170e+02, 4.61853170e+02,
       4.62853170e+02, 4.63853170e+02, 4.64853170e+02, 4.65853170e+02,
       4.66853170e+02, 4.67853170e+02, 4.68853170e+02, 4.69853170e+02,
       4.70853170e+02, 4.71853170e+02, 4.72853170e+02, 4.73853170e+02,
       4.74853170e+02, 4.75853170e+02, 4.76853170e+02, 4.77853170e+02,
       4.78853170e+02, 4.79853170e+02, 4.80853170e+02, 4.81853170e+02,
       4.82853170e+02, 4.83853170e+02, 4.84853170e+02, 4.85853170e+02,
       4.86853170e+02, 4.87853170e+02, 4.88853170e+02, 4.89853170e+02,
       4.90853170e+02, 4.91853170e+02, 4.92853170e+02, 4.93853170e+02,
       4.94853170e+02, 4.95853170e+02, 4.96853170e+02, 4.97853170e+02,
       4.98853170e+02, 4.99853170e+02, 5.00853170e+02, 5.01853170e+02,
       5.02853170e+02, 5.03853170e+02, 5.04853170e+02, 5.05853170e+02,
       5.06853170e+02, 5.07853170e+02, 5.08853170e+02, 5.09853170e+02,
       5.10853170e+02, 5.11853170e+02, 5.12853170e+02, 5.13853170e+02,
       5.14853170e+02, 5.15853170e+02, 5.16853170e+02, 5.17853170e+02,
       5.18853170e+02, 5.19853170e+02, 5.20853170e+02, 5.21853170e+02,
       5.22853170e+02, 5.23853170e+02, 5.24853170e+02, 5.25853170e+02,
       5.26853170e+02, 5.27853170e+02, 5.28853170e+02, 5.29853170e+02,
       5.30853170e+02, 5.31853170e+02, 5.32853170e+02, 5.33853170e+02,
       5.34853170e+02, 5.35853170e+02, 5.36853170e+02, 5.37853170e+02,
       5.38853170e+02, 5.39853170e+02, 5.40853170e+02, 5.41853170e+02,
       5.42853170e+02, 5.43853170e+02, 5.44853170e+02, 5.45853170e+02,
       5.46853170e+02, 5.47853170e+02, 5.48853170e+02, 5.49853170e+02,
       5.50853170e+02, 5.51853170e+02, 5.52853170e+02, 5.53853170e+02,
       5.54853170e+02, 5.55853170e+02, 5.56853170e+02, 5.57853170e+02,
       5.58853170e+02, 5.59853170e+02, 5.60853170e+02, 5.61853170e+02,
       5.62853170e+02, 5.63853170e+02, 5.64853170e+02, 5.65853170e+02,
       5.66853170e+02, 5.67853170e+02, 5.68853170e+02, 5.69853170e+02,
       5.70853170e+02, 5.71853170e+02, 5.72853170e+02, 5.73853170e+02,
       5.74853170e+02, 5.75853170e+02, 5.76853170e+02, 5.77853170e+02,
       5.78853170e+02, 5.79853170e+02, 5.80853170e+02, 5.81853170e+02,
       5.82853170e+02, 5.83853170e+02, 5.84853170e+02, 5.85853170e+02,
       5.86853170e+02, 5.87853170e+02, 5.88853170e+02, 5.89853170e+02,
       5.90853170e+02, 5.91853170e+02, 5.92853170e+02, 5.93853170e+02,
       5.94853170e+02, 5.95853170e+02, 5.96853170e+02, 5.97853170e+02,
       5.98853170e+02, 5.99853170e+02, 6.00853170e+02, 6.01853170e+02,
       6.02853170e+02, 6.03853170e+02, 6.04853170e+02, 6.05853170e+02,
       6.06853170e+02, 6.07853170e+02, 6.08853170e+02, 6.09853170e+02,
       6.10853170e+02, 6.11853170e+02, 6.12853170e+02, 6.13853170e+02,
       6.14853170e+02, 6.15853170e+02, 6.16853170e+02, 6.17853170e+02,
       6.18853170e+02, 6.19853170e+02, 6.20853170e+02, 6.21853170e+02,
       6.22853170e+02, 6.23853170e+02, 6.24853170e+02, 6.25853170e+02,
       6.26853170e+02, 6.27853170e+02, 6.28853170e+02, 6.29853170e+02,
       6.30853170e+02, 6.31853170e+02, 6.32853170e+02, 6.33853170e+02,
       6.34853170e+02, 6.35853170e+02, 6.36853170e+02, 6.37853170e+02,
       6.38853170e+02, 6.39853170e+02, 6.40853170e+02, 6.41853170e+02,
       6.42853170e+02, 6.43853170e+02, 6.44853170e+02, 6.45853170e+02,
       6.46853170e+02, 6.47853170e+02, 6.48853170e+02, 6.49853170e+02,
       6.50853170e+02, 6.51853170e+02, 6.52853170e+02, 6.53853170e+02,
       6.54853170e+02, 6.55853170e+02, 6.56853170e+02, 6.57853170e+02,
       6.58853170e+02, 6.59853170e+02, 6.60853170e+02, 6.61736435e+02]), 'completion_time': np.float64(661.7364347915376), 'velocity': array([0.3125    , 0.312701  , 0.31290197, 0.3149083 , 0.31691084,
       0.32376299, 0.33057111, 0.33733453, 0.36494379, 0.39180293,
       0.41793122, 0.48831722, 0.5533959 , 0.61357376, 0.66922387,
       0.79652792, 0.90018936, 0.98459917, 1.05334627, 1.10936525,
       1.18847468, 1.24255075, 1.2795259 , 1.30487142, 1.32239137,
       1.33923392, 1.34959666, 1.35613454, 1.36049798, 1.36371698,
       1.36814384, 1.37200535, 1.37570954, 1.37921728, 1.38767204,
       1.39586624, 1.40394517, 1.41188683, 1.41966382, 1.42726918,
       1.43470255, 1.44196258, 1.44904677, 1.4559527 , 1.46267799,
       1.46922064, 1.47557889, 1.48175117, 1.4877361 , 1.49353249,
       1.49913935, 1.50455591, 1.50978157, 1.51481594, 1.51965882,
       1.52431018, 1.52877018, 1.53303919, 1.53711773, 1.54100651,
       1.54470639, 1.54821841, 1.55154379, 1.55468387, 1.55764018,
       1.56041436, 1.56300822, 1.56542371, 1.56766289, 1.56972797,
       1.57162126, 1.57334521, 1.57490236, 1.57629537, 1.577527  ,
       1.57860009, 1.57951759, 1.58028252, 1.580898  , 1.58136719,
       1.58169336, 1.58187981, 1.58192991, 1.58184709, 1.58163483,
       1.58129665, 1.58083611, 1.5802568 , 1.57956237, 1.57875646,
       1.57784275, 1.57682494, 1.57570675, 1.5744919 , 1.57318412,
       1.57178716, 1.57030474, 1.56874062, 1.56709851, 1.56538215,
       1.56359525, 1.5617415 , 1.5598246 , 1.55784821, 1.55581597,
       1.5537315 , 1.55159841, 1.54942026, 1.5472006 , 1.54494295,
       1.54265079, 1.54032756, 1.53797669, 1.53560157, 1.53320553,
       1.5307919 , 1.52836394, 1.5259249 , 1.52347798, 1.52102635,
       1.51857312, 1.51612139, 1.51367421, 1.51123459, 1.5088055 ,
       1.50638988, 1.50399064, 1.50161063, 1.49925269, 1.49691961,
       1.49461415, 1.49233904, 1.49009698, 1.48789062, 1.48572261,
       1.48359555, 1.48151202, 1.47947457, 1.47748574, 1.47554801,
       1.47366389, 1.47183583, 1.47006629, 1.46835768, 1.46671244,
       1.46513295, 1.46362163, 1.46218084, 1.46081297, 1.4595204 ,
       1.4583055 , 1.45717063, 1.45611819, 1.45515055, 1.45427009,
       1.45347923, 1.45278037, 1.45217594, 1.4516684 , 1.45126021,
       1.45095386, 1.45075188, 1.45065681, 1.45067021, 1.450791  ,
       1.45101643, 1.45134364, 1.45177005, 1.45229313, 1.45291028,
       1.45361889, 1.45441641, 1.45530029, 1.45626803, 1.45731708,
       1.45844493, 1.45964908, 1.46092701, 1.46227622, 1.46369419,
       1.46517841, 1.46672634, 1.46833545, 1.47000319, 1.47172701,
       1.47350432, 1.47533252, 1.47720902, 1.47913116, 1.48109629,
       1.48310173, 1.48514478, 1.48722269, 1.48933271, 1.49147205,
       1.49363788, 1.49582736, 1.49803759, 1.50026566, 1.50250862,
       1.50476348, 1.50702722, 1.50929677, 1.51156906, 1.51384095,
       1.51610927, 1.51837082, 1.52062236, 1.52286063, 1.52508231,
       1.52728405, 1.52946248, 1.53161418, 1.53373572, 1.5358236 ,
       1.53787432, 1.53988434, 1.54185009, 1.54376798, 1.54563438,
       1.54744565, 1.54919813, 1.55088813, 1.55251194, 1.55406585,
       1.55554613, 1.55694902, 1.5582708 , 1.55950769, 1.56065601,
       1.56171337, 1.56267972, 1.56355595, 1.56434299, 1.56504169,
       1.56565299, 1.56617785, 1.56661721, 1.56697208, 1.56724344,
       1.56743236, 1.56753988, 1.56756708, 1.56751505, 1.56738492,
       1.56717779, 1.56689483, 1.56653719, 1.56610605, 1.5656026 ,
       1.56502803, 1.56438356, 1.56367041, 1.56288981, 1.56204301,
       1.56113126, 1.5601558 , 1.55911792, 1.55801888, 1.55685995,
       1.55564241, 1.55436755, 1.55303666, 1.55165102, 1.55021193,
       1.54872067, 1.54717855, 1.54558685, 1.54394686, 1.54225988,
       1.54052718, 1.53875007, 1.53692982, 1.5350677 , 1.533165  ,
       1.53122299, 1.52924292, 1.52722605, 1.52517365, 1.52308696,
       1.52096721, 1.51881564, 1.51663347, 1.51442193, 1.51218221,
       1.50991552, 1.50762305, 1.50530598, 1.50296548, 1.50060272,
       1.49821884, 1.49581499, 1.49339229, 1.49095187, 1.48849486,
       1.48602268, 1.48353707, 1.48103986, 1.4785328 , 1.47601763,
       1.47349605, 1.47096979, 1.46844053, 1.46590993, 1.46337962,
       1.46085121, 1.45832631, 1.45580648, 1.45329327, 1.45078822,
       1.44829284, 1.4458086 , 1.44333699, 1.44087944, 1.43843739,
       1.43601224, 1.43360538, 1.43121818, 1.42885199, 1.42650814,
       1.42418794, 1.4218927 , 1.4196237 , 1.41738219, 1.41516942,
       1.41298664, 1.41083505, 1.40871585, 1.40663025, 1.40457942,
       1.40256451, 1.40058669, 1.39864709, 1.39674684, 1.39488707,
       1.39306888, 1.39129338, 1.38956166, 1.38787481, 1.38623391,
       1.38464003, 1.38309425, 1.38159763, 1.38015123, 1.37875612,
       1.37741334, 1.37612397, 1.37488904, 1.37370963, 1.37258678,
       1.37152156, 1.37051504, 1.36956828, 1.36868236, 1.36785835,
       1.36709734, 1.36640043, 1.36576871, 1.36520331, 1.36470534,
       1.36427594, 1.36391627, 1.36362747, 1.36341074, 1.36326726,
       1.36319803, 1.36320295, 1.36328105, 1.36343119, 1.36365228,
       1.36394325, 1.36430307, 1.36473075, 1.36522522, 1.36578547,
       1.36641053, 1.36709942, 1.36785117, 1.36866483, 1.36953943,
       1.37047405, 1.37146774, 1.37251957, 1.37362861, 1.37479396,
       1.37601467, 1.37728986, 1.37861859, 1.37999996, 1.38143307,
       1.38291699, 1.38445082, 1.38603365, 1.38766457, 1.38934264,
       1.39106696, 1.3928366 , 1.39465062, 1.3965081 , 1.39840809,
       1.40034964, 1.4023318 , 1.4043536 , 1.40641407, 1.40851223,
       1.41064709, 1.41281764, 1.41502287, 1.41726177, 1.41953328,
       1.42183637, 1.42416998, 1.42653302, 1.42892441, 1.43134304,
       1.43378781, 1.43625756, 1.43875116, 1.44126744, 1.4438052 ,
       1.44636327, 1.44894041, 1.45153539, 1.45414696, 1.45677384,
       1.45941475, 1.46206838, 1.46473339, 1.46740844, 1.47009215,
       1.47278315, 1.47548001, 1.47818131, 1.4808856 , 1.48359141,
       1.48629724, 1.48900166, 1.49170363, 1.49440242, 1.49709745,
