{'altitude': np.float64(7.597980736190829), 'velocity': np.float64(5.1126912341001986e-05), 'num_rockets': 8, 'volume': 150, 'parachute': {'deployed': True, 'ejected': True, 'diameter': np.float64(14.0), 'Cd': 0.615, 'cost_per_A': 1000.0, 'mass': 185.0}, 'heat_shield': {'ejected': True, 'mass': 225.0, 'diameter': 4.5, 'Cd': 0.35}, 'rocket': {'on': True, 'structure_mass': 8.0, 'initial_fuel_mass': np.float64(109.41304357699185), 'cost_per_kg': 1500, 'fuel_mass': np.float64(40.16058674552321), 'effective_exhaust_velocity': 4500.0, 'max_thrust': 3100.0, 'min_thrust': 40.0}, 'speed_control': {'on': False, 'Kp': 2000, 'Kd': 20, 'Ki': 50, 'target_velocity': -3.0}, 'position_control': {'on': True, 'Kp': 2000, 'Kd': 1000, 'Ki': 50, 'target_altitude': 7.6}, 'sky_crane': {'on': False, 'danger_altitude': 4.5, 'danger_speed': -1.0, 'mass': 35.0, 'area': 16.0, 'Cd': 0.9, 'max_cable': 7.6, 'velocity': -0.1}, 'rover': {'wheel_assembly': {'wheel': {'radius': np.float64(0.6999697895960247), 'mass': 1}, 'speed_reducer': {'type': 'reverted', 'diam_pinion': 0.04, 'diam_gear': np.float64(0.05), 'mass': 1.5}, 'motor': {'torque_stall': 165, 'torque_noload': 0, 'speed_noload': 3.85, 'mass': 5.0, 'effcy_tau': array([  0,  10,  20,  40,  75, 165]), 'effcy': array([0.  , 0.6 , 0.75, 0.73, 0.55, 0.05]), 'type': 'base', 'cost': 250000.0}}, 'chassis': {'mass': np.float64(250.00029357853708), 'type': 'magnesium', 'specific_strength': 250, 'strength': 164750}, 'science_payload': {'mass': 75}, 'power_subsys': {'mass': 90, 'battery': {'battery_type': 'LiFePO4', 'num_modules': 10, 'mass': 34.86, 'cost': 2250000.0, 'capacity': 907200.0}}, 'on_ground': True, 'telemetry': {'Time': array([0.00000000e+00, 7.32630580e-05, 1.46526116e-04, 8.79156696e-04,
       1.61178728e-03, 4.13949738e-03, 6.66720748e-03, 9.19491758e-03,
       1.97680053e-02, 3.03410930e-02, 4.09141807e-02, 7.11186886e-02,
       1.01323197e-01, 1.31527704e-01, 1.61732212e-01, 2.41401371e-01,
       3.21070531e-01, 4.00739690e-01, 4.80408849e-01, 5.60078008e-01,
       7.10263384e-01, 8.60448761e-01, 1.01063414e+00, 1.16081951e+00,
       1.31100489e+00, 1.53138805e+00, 1.75177120e+00, 1.97215436e+00,
       2.19253752e+00, 2.41292068e+00, 2.83417881e+00, 3.25543694e+00,
       3.67669507e+00, 4.09795320e+00, 5.09795320e+00, 6.09795320e+00,
       7.09795320e+00, 8.09795320e+00, 9.09795320e+00, 1.00979532e+01,
       1.10979532e+01, 1.20979532e+01, 1.30979532e+01, 1.40979532e+01,
       1.50979532e+01, 1.60979532e+01, 1.70979532e+01, 1.80979532e+01,
       1.90979532e+01, 2.00979532e+01, 2.10979532e+01, 2.20979532e+01,
       2.30979532e+01, 2.40979532e+01, 2.50979532e+01, 2.60979532e+01,
       2.70979532e+01, 2.80979532e+01, 2.90979532e+01, 3.00979532e+01,
       3.10979532e+01, 3.20979532e+01, 3.30979532e+01, 3.40979532e+01,
       3.50979532e+01, 3.60979532e+01, 3.70979532e+01, 3.80979532e+01,
       3.90979532e+01, 4.00979532e+01, 4.10979532e+01, 4.20979532e+01,
       4.30979532e+01, 4.40979532e+01, 4.50979532e+01, 4.60979532e+01,
       4.70979532e+01, 4.80979532e+01, 4.90979532e+01, 5.00979532e+01,
       5.10979532e+01, 5.20979532e+01, 5.30979532e+01, 5.40979532e+01,
       5.50979532e+01, 5.60979532e+01, 5.70979532e+01, 5.80979532e+01,
       5.90979532e+01, 6.00979532e+01, 6.10979532e+01, 6.20979532e+01,
       6.30979532e+01, 6.40979532e+01, 6.50979532e+01, 6.60979532e+01,
       6.70979532e+01, 6.80979532e+01, 6.90979532e+01, 7.00979532e+01,
       7.10979532e+01, 7.20979532e+01, 7.30979532e+01, 7.40979532e+01,
       7.50979532e+01, 7.60979532e+01, 7.70979532e+01, 7.80979532e+01,
       7.90979532e+01, 8.00979532e+01, 8.10979532e+01, 8.20979532e+01,
       8.30979532e+01, 8.40979532e+01, 8.50979532e+01, 8.60979532e+01,
       8.70979532e+01, 8.80979532e+01, 8.90979532e+01, 9.00979532e+01,
       9.10979532e+01, 9.20979532e+01, 9.30979532e+01, 9.40979532e+01,
       9.50979532e+01, 9.60979532e+01, 9.70979532e+01, 9.80979532e+01,
       9.90979532e+01, 1.00097953e+02, 1.01097953e+02, 1.02097953e+02,
       1.03097953e+02, 1.04097953e+02, 1.05097953e+02, 1.06097953e+02,
       1.07097953e+02, 1.08097953e+02, 1.09097953e+02, 1.10097953e+02,
       1.11097953e+02, 1.12097953e+02, 1.13097953e+02, 1.14097953e+02,
       1.15097953e+02, 1.16097953e+02, 1.17097953e+02, 1.18097953e+02,
       1.19097953e+02, 1.20097953e+02, 1.21097953e+02, 1.22097953e+02,
       1.23097953e+02, 1.24097953e+02, 1.25097953e+02, 1.26097953e+02,
       1.27097953e+02, 1.28097953e+02, 1.29097953e+02, 1.30097953e+02,
       1.31097953e+02, 1.32097953e+02, 1.33097953e+02, 1.34097953e+02,
       1.35097953e+02, 1.36097953e+02, 1.37097953e+02, 1.38097953e+02,
       1.39097953e+02, 1.40097953e+02, 1.41097953e+02, 1.42097953e+02,
       1.43097953e+02, 1.44097953e+02, 1.45097953e+02, 1.46097953e+02,
       1.47097953e+02, 1.48097953e+02, 1.49097953e+02, 1.50097953e+02,
       1.51097953e+02, 1.52097953e+02, 1.53097953e+02, 1.54097953e+02,
       1.55097953e+02, 1.56097953e+02, 1.57097953e+02, 1.58097953e+02,
       1.59097953e+02, 1.60097953e+02, 1.61097953e+02, 1.62097953e+02,
       1.63097953e+02, 1.64097953e+02, 1.65097953e+02, 1.66097953e+02,
       1.67097953e+02, 1.68097953e+02, 1.69097953e+02, 1.70097953e+02,
       1.71097953e+02, 1.72097953e+02, 1.73097953e+02, 1.74097953e+02,
       1.75097953e+02, 1.76097953e+02, 1.77097953e+02, 1.78097953e+02,
       1.79097953e+02, 1.80097953e+02, 1.81097953e+02, 1.82097953e+02,
       1.83097953e+02, 1.84097953e+02, 1.85097953e+02, 1.86097953e+02,
       1.87097953e+02, 1.88097953e+02, 1.89097953e+02, 1.90097953e+02,
       1.91097953e+02, 1.92097953e+02, 1.93097953e+02, 1.94097953e+02,
       1.95097953e+02, 1.96097953e+02, 1.97097953e+02, 1.98097953e+02,
       1.99097953e+02, 2.00097953e+02, 2.01097953e+02, 2.02097953e+02,
       2.03097953e+02, 2.04097953e+02, 2.05097953e+02, 2.06097953e+02,
       2.07097953e+02, 2.08097953e+02, 2.09097953e+02, 2.10097953e+02,
       2.11097953e+02, 2.12097953e+02, 2.13097953e+02, 2.14097953e+02,
       2.15097953e+02, 2.16097953e+02, 2.17097953e+02, 2.18097953e+02,
       2.19097953e+02, 2.20097953e+02, 2.21097953e+02, 2.22097953e+02,
       2.23097953e+02, 2.24097953e+02, 2.25097953e+02, 2.26097953e+02,
       2.27097953e+02, 2.28097953e+02, 2.29097953e+02, 2.30097953e+02,
       2.31097953e+02, 2.32097953e+02, 2.33097953e+02, 2.34097953e+02,
       2.35097953e+02, 2.36097953e+02, 2.37097953e+02, 2.38097953e+02,
       2.39097953e+02, 2.40097953e+02, 2.41097953e+02, 2.42097953e+02,
       2.43097953e+02, 2.44097953e+02, 2.45097953e+02, 2.46097953e+02,
       2.47097953e+02, 2.48097953e+02, 2.49097953e+02, 2.50097953e+02,
       2.51097953e+02, 2.52097953e+02, 2.53097953e+02, 2.54097953e+02,
       2.55097953e+02, 2.56097953e+02, 2.57097953e+02, 2.58097953e+02,
       2.59097953e+02, 2.60097953e+02, 2.61097953e+02, 2.62097953e+02,
       2.63097953e+02, 2.64097953e+02, 2.65097953e+02, 2.66097953e+02,
       2.67097953e+02, 2.68097953e+02, 2.69097953e+02, 2.70097953e+02,
       2.71097953e+02, 2.72097953e+02, 2.73097953e+02, 2.74097953e+02,
       2.75097953e+02, 2.76097953e+02, 2.77097953e+02, 2.78097953e+02,
       2.79097953e+02, 2.80097953e+02, 2.81097953e+02, 2.82097953e+02,
       2.83097953e+02, 2.84097953e+02, 2.85097953e+02, 2.86097953e+02,
       2.87097953e+02, 2.88097953e+02, 2.89097953e+02, 2.90097953e+02,
       2.91097953e+02, 2.92097953e+02, 2.93097953e+02, 2.94097953e+02,
       2.95097953e+02, 2.96097953e+02, 2.97097953e+02, 2.98097953e+02,
       2.99097953e+02, 3.00097953e+02, 3.01097953e+02, 3.02097953e+02,
       3.03097953e+02, 3.04097953e+02, 3.05097953e+02, 3.06097953e+02,
       3.07097953e+02, 3.08097953e+02, 3.09097953e+02, 3.10097953e+02,
       3.11097953e+02, 3.12097953e+02, 3.13097953e+02, 3.14097953e+02,
       3.15097953e+02, 3.16097953e+02, 3.17097953e+02, 3.18097953e+02,
       3.19097953e+02, 3.20097953e+02, 3.21097953e+02, 3.22097953e+02,
       3.23097953e+02, 3.24097953e+02, 3.25097953e+02, 3.26097953e+02,
       3.27097953e+02, 3.28097953e+02, 3.29097953e+02, 3.30097953e+02,
       3.31097953e+02, 3.32097953e+02, 3.33097953e+02, 3.34097953e+02,
       3.35097953e+02, 3.36097953e+02, 3.37097953e+02, 3.38097953e+02,
       3.39097953e+02, 3.40097953e+02, 3.41097953e+02, 3.42097953e+02,
       3.43097953e+02, 3.44097953e+02, 3.45097953e+02, 3.46097953e+02,
       3.47097953e+02, 3.48097953e+02, 3.49097953e+02, 3.50097953e+02,
       3.51097953e+02, 3.52097953e+02, 3.53097953e+02, 3.54097953e+02,
       3.55097953e+02, 3.56097953e+02, 3.57097953e+02, 3.58097953e+02,
       3.59097953e+02, 3.60097953e+02, 3.61097953e+02, 3.62097953e+02,
       3.63097953e+02, 3.64097953e+02, 3.65097953e+02, 3.66097953e+02,
       3.67097953e+02, 3.68097953e+02, 3.69097953e+02, 3.70097953e+02,
       3.71097953e+02, 3.72097953e+02, 3.73097953e+02, 3.74097953e+02,
       3.75097953e+02, 3.76097953e+02, 3.77097953e+02, 3.78097953e+02,
       3.79097953e+02, 3.80097953e+02, 3.81097953e+02, 3.82097953e+02,
       3.83097953e+02, 3.84097953e+02, 3.85097953e+02, 3.86097953e+02,
       3.87097953e+02, 3.88097953e+02, 3.89097953e+02, 3.90097953e+02,
       3.91097953e+02, 3.92097953e+02, 3.93097953e+02, 3.94097953e+02,
       3.95097953e+02, 3.96097953e+02, 3.97097953e+02, 3.98097953e+02,
       3.99097953e+02, 4.00097953e+02, 4.01097953e+02, 4.02097953e+02,
       4.03097953e+02, 4.04097953e+02, 4.05097953e+02, 4.06097953e+02,
       4.07097953e+02, 4.08097953e+02, 4.09097953e+02, 4.10097953e+02,
       4.11097953e+02, 4.12097953e+02, 4.13097953e+02, 4.14097953e+02,
       4.15097953e+02, 4.16097953e+02, 4.17097953e+02, 4.18097953e+02,
       4.19097953e+02, 4.20097953e+02, 4.21097953e+02, 4.22097953e+02,
       4.23097953e+02, 4.24097953e+02, 4.25097953e+02, 4.26097953e+02,
       4.27097953e+02, 4.28097953e+02, 4.29097953e+02, 4.30097953e+02,
       4.31097953e+02, 4.32097953e+02, 4.33097953e+02, 4.34097953e+02,
       4.35097953e+02, 4.36097953e+02, 4.37097953e+02, 4.38097953e+02,
       4.39097953e+02, 4.40097953e+02, 4.41097953e+02, 4.42097953e+02,
       4.43097953e+02, 4.44097953e+02, 4.45097953e+02, 4.46097953e+02,
       4.47097953e+02, 4.48097953e+02, 4.49097953e+02, 4.50097953e+02,
       4.51097953e+02, 4.52097953e+02, 4.53097953e+02, 4.54097953e+02,
       4.55097953e+02, 4.56097953e+02, 4.57097953e+02, 4.58097953e+02,
       4.59097953e+02, 4.60097953e+02, 4.61097953e+02, 4.62097953e+02,
       4.63097953e+02, 4.64097953e+02, 4.65097953e+02, 4.66097953e+02,
       4.67097953e+02, 4.68097953e+02, 4.69097953e+02, 4.70097953e+02,
       4.71097953e+02, 4.72097953e+02, 4.73097953e+02, 4.74097953e+02,
       4.75097953e+02, 4.76097953e+02, 4.77097953e+02, 4.78097953e+02,
       4.79097953e+02, 4.80097953e+02, 4.81097953e+02, 4.82097953e+02,
       4.83097953e+02, 4.84097953e+02, 4.85097953e+02, 4.86097953e+02,
       4.87097953e+02, 4.88097953e+02, 4.89097953e+02, 4.90097953e+02,
       4.91097953e+02, 4.92097953e+02, 4.93097953e+02, 4.94097953e+02,
       4.95097953e+02, 4.96097953e+02, 4.97097953e+02, 4.98097953e+02,
       4.99097953e+02, 5.00097953e+02, 5.01097953e+02, 5.02097953e+02,
       5.03097953e+02, 5.04097953e+02, 5.05097953e+02, 5.06097953e+02,
       5.07097953e+02, 5.08097953e+02, 5.09097953e+02, 5.10097953e+02,
       5.11097953e+02, 5.12097953e+02, 5.13097953e+02, 5.14097953e+02,
       5.15097953e+02, 5.16097953e+02, 5.17097953e+02, 5.18097953e+02,
       5.19097953e+02, 5.20097953e+02, 5.21097953e+02, 5.22097953e+02,
       5.23097953e+02, 5.24097953e+02, 5.25097953e+02, 5.26097953e+02,
       5.27097953e+02, 5.28097953e+02, 5.29097953e+02, 5.30097953e+02,
       5.31097953e+02, 5.32097953e+02, 5.33097953e+02, 5.34097953e+02,
       5.35097953e+02, 5.36097953e+02, 5.37097953e+02, 5.38097953e+02,
       5.39097953e+02, 5.40097953e+02, 5.41097953e+02, 5.42097953e+02,
       5.43097953e+02, 5.44097953e+02, 5.45097953e+02, 5.46097953e+02,
       5.47097953e+02, 5.48097953e+02, 5.49097953e+02, 5.50097953e+02,
       5.51097953e+02, 5.52097953e+02, 5.53097953e+02, 5.54097953e+02,
       5.55097953e+02, 5.56097953e+02, 5.57097953e+02, 5.58097953e+02,
       5.59097953e+02, 5.60097953e+02, 5.61097953e+02, 5.62097953e+02,
       5.63097953e+02, 5.64097953e+02, 5.65097953e+02, 5.66097953e+02,
       5.67097953e+02, 5.68097953e+02, 5.69097953e+02, 5.70097953e+02,
       5.71097953e+02, 5.72097953e+02, 5.73097953e+02, 5.74097953e+02,
       5.75097953e+02, 5.76097953e+02, 5.77097953e+02, 5.78097953e+02,
       5.79097953e+02, 5.80097953e+02, 5.81097953e+02, 5.82097953e+02,
       5.83097953e+02, 5.84097953e+02, 5.85097953e+02, 5.86097953e+02,
       5.87097953e+02, 5.88097953e+02, 5.89097953e+02, 5.90097953e+02,
       5.91097953e+02, 5.92097953e+02, 5.93097953e+02, 5.94097953e+02,
       5.95097953e+02, 5.96097953e+02, 5.97097953e+02, 5.98097953e+02,
       5.99097953e+02, 6.00097953e+02, 6.01097953e+02, 6.02097953e+02,
       6.03097953e+02, 6.04097953e+02, 6.05097953e+02, 6.06097953e+02,
       6.07097953e+02, 6.08097953e+02, 6.09097953e+02, 6.10097953e+02,
       6.11097953e+02, 6.12097953e+02, 6.13097953e+02, 6.14097953e+02,
       6.15097953e+02, 6.16097953e+02, 6.17097953e+02, 6.18097953e+02,
       6.19097953e+02, 6.20097953e+02, 6.21097953e+02, 6.22097953e+02,
       6.23097953e+02, 6.24097953e+02, 6.25097953e+02, 6.26097953e+02,
       6.27097953e+02, 6.28097953e+02, 6.29097953e+02, 6.30097953e+02,
       6.31097953e+02, 6.32097953e+02, 6.33097953e+02, 6.34097953e+02,
       6.35097953e+02, 6.36097953e+02, 6.37097953e+02, 6.38097953e+02,
       6.39097953e+02, 6.40097953e+02, 6.41097953e+02, 6.42097953e+02,
       6.43097953e+02, 6.44097953e+02, 6.45097953e+02, 6.46097953e+02,
       6.47097953e+02, 6.48097953e+02, 6.49097953e+02, 6.50097953e+02,
       6.51097953e+02, 6.52097953e+02, 6.53097953e+02, 6.54097953e+02,
       6.55097953e+02, 6.56097953e+02, 6.57097953e+02, 6.58097953e+02,
       6.59097953e+02, 6.60097953e+02, 6.61097953e+02, 6.62097953e+02,
       6.63097953e+02, 6.64097953e+02, 6.65097953e+02, 6.66097953e+02,
       6.66762257e+02]), 'completion_time': np.float64(666.7622569802411), 'velocity': array([0.3125    , 0.31269299, 0.31288595, 0.31481241, 0.3167353 ,
       0.32334411, 0.32991111, 0.33643566, 0.36327188, 0.38938504,
       0.41479358, 0.48366074, 0.54734832, 0.60625218, 0.66073574,
       0.7856542 , 0.88739036, 0.97024962, 1.03775084, 1.09277128,
       1.17056475, 1.22377811, 1.26020468, 1.2852183 , 1.30255444,
       1.31930181, 1.32969363, 1.33633499, 1.34084499, 1.34423392,
       1.3490242 , 1.35325988, 1.35733923, 1.36122208, 1.37004966,
       1.37862565, 1.38707909, 1.39539131, 1.40353679, 1.41150787,
       1.41930336, 1.42692148, 1.43435943, 1.44161448, 1.44868392,
       1.45556536, 1.46225674, 1.46875618, 1.47506201, 1.48117274,
       1.48708713, 1.49280412, 1.49832288, 1.50364278, 1.5087634 ,
       1.51368453, 1.51840613, 1.5229284 , 1.52725169, 1.53137658,
       1.53530382, 1.53903433, 1.54256922, 1.54590978, 1.54905745,
       1.55201385, 1.55478074, 1.55736004, 1.55975383, 1.56196431,
       1.56399382, 1.56584483, 1.56751996, 1.5690219 , 1.57035349,
       1.57151766, 1.57251745, 1.57335598, 1.57403648, 1.57456224,
       1.57493665, 1.57516316, 1.57524529, 1.57518662, 1.57499078,
       1.57466146, 1.5742024 , 1.57361738, 1.57291019, 1.57208469,
       1.57114474, 1.57009423, 1.56893708, 1.5676772 , 1.56631852,
       1.564865  , 1.56332055, 1.56168914, 1.55997468, 1.5581811 ,
       1.55631233, 1.55437226, 1.55236477, 1.55029373, 1.54816299,
       1.54597635, 1.54373762, 1.54145055, 1.53911887, 1.53674629,
       1.53433647, 1.53189305, 1.52941961, 1.52691972, 1.5243969 ,
       1.52185462, 1.51929632, 1.51672539, 1.51414521, 1.51155908,
       1.50897028, 1.50638204, 1.50379754, 1.50121995, 1.49865236,
       1.49609784, 1.49355942, 1.49104008, 1.48854278, 1.48607041,
       1.48362586, 1.48121195, 1.47883148, 1.47648722, 1.47418189,
       1.47191821, 1.46969883, 1.4675264 , 1.46540352, 1.46333279,
       1.46131677, 1.45935799, 1.45745898, 1.45562224, 1.45385024,
       1.45214547, 1.45051037, 1.4489474 , 1.44745899, 1.44604757,
       1.44471558, 1.44346544, 1.44229957, 1.44122043, 1.44023043,
       1.43933204, 1.43852771, 1.43781993, 1.43721118, 1.43670399,
       1.43630089, 1.43600446, 1.43581728, 1.43574193, 1.43577945,
       1.43592826, 1.43618525, 1.4365478 , 1.43701327, 1.43757903,
       1.43824229, 1.43900035, 1.43985065, 1.44079062, 1.44181767,
       1.44292919, 1.44412262, 1.44539538, 1.44674492, 1.44816865,
       1.449664  , 1.45122839, 1.45285923, 1.45455392, 1.45630986,
       1.4581244 , 1.45999492, 1.46191874, 1.46389318, 1.46591554,
       1.46798308, 1.47009305, 1.47224266, 1.4744291 , 1.47664953,
       1.47890106, 1.4811808 , 1.48348579, 1.48581306, 1.48815959,
       1.49052234, 1.49289821, 1.49528409, 1.49767679, 1.50007312,
       1.50246983, 1.50486365, 1.50725123, 1.50962922, 1.51199422,
       1.51434278, 1.51667142, 1.51897662, 1.52125482, 1.52350242,
       1.52571581, 1.5278913 , 1.53002521, 1.5321138 , 1.53415331,
       1.53613995, 1.53806991, 1.53993933, 1.54174437, 1.54348113,
       1.54514571, 1.5467342 , 1.54824266, 1.54966716, 1.55100375,
       1.55224849, 1.5533982 , 1.55445201, 1.5554108 , 1.55627548,
       1.55704695, 1.5577261 , 1.55831394, 1.55881149, 1.55921975,
       1.55953975, 1.55977257, 1.55991931, 1.55998108, 1.55995902,
       1.55985429, 1.55966806, 1.55940152, 1.5590559 , 1.55863242,
       1.55813232, 1.55755686, 1.55690731, 1.55618495, 1.55539108,
       1.55452701, 1.55359403, 1.55259349, 1.55152671, 1.55039503,
       1.54919978, 1.54794233, 1.54662403, 1.54524622, 1.54381028,
       1.54231757, 1.54076944, 1.53916727, 1.53751241, 1.53580624,
       1.53405011, 1.5322454 , 1.53039344, 1.52849561, 1.52655324,
       1.5245677 , 1.52254031, 1.52047242, 1.51836536, 1.51622045,
       1.51403901, 1.51182234, 1.50957175, 1.50728854, 1.50497399,
       1.50262936, 1.50025594, 1.49785498, 1.49542771, 1.49297539,
       1.49049922, 1.48800044, 1.48548023, 1.4829398 , 1.48038032,
       1.47780295, 1.47520894, 1.47259988, 1.46997762, 1.46734406,
       1.46470101, 1.46205026, 1.45939359, 1.45673277, 1.45406953,
       1.45140559, 1.44874263, 1.44608231, 1.44342629, 1.44077617,
       1.43813355, 1.4355    , 1.43287706, 1.43026628, 1.42766914,
       1.42508713, 1.42252171, 1.41997432, 1.41744637, 1.41493927,
       1.41245439, 1.40999308, 1.40755669, 1.40514653, 1.40276392,
       1.40041012, 1.39808641, 1.39579403, 1.39353423, 1.39130822,
       1.38911721, 1.38696237, 1.3848449 , 1.38276596, 1.3807267 ,
       1.37872825, 1.37677174, 1.37485831, 1.37298905, 1.37116507,
       1.36938747, 1.36765732, 1.36597571, 1.36434372, 1.36276241,
       1.36123286, 1.35975612, 1.35833326, 1.35696533, 1.3556534 ,
       1.35439853, 1.35320178, 1.3520642 , 1.35098688, 1.34997087,
       1.34901726, 1.34812712, 1.34730155, 1.34654164, 1.3458485 ,
       1.34522324, 1.34466699, 1.34418089, 1.34376609, 1.34342376,
       1.34315508, 1.34296126, 1.34284348, 1.34280239, 1.34283745,
       1.34294744, 1.34313129, 1.34338793, 1.34371633, 1.34411538,
       1.34458402, 1.34512126, 1.34572611, 1.34639755, 1.34713462,
       1.34793632, 1.34880172, 1.34972984, 1.35071974, 1.35177049,
       1.35288116, 1.3540508 , 1.35527852, 1.35656338, 1.35790447,
       1.35930087, 1.36075169, 1.362256  , 1.36381289, 1.36542146,
       1.36708078, 1.36878995, 1.37054805, 1.37235415, 1.37420734,
       1.37610666, 1.3780512 , 1.38004   , 1.38207212, 1.38414659,
       1.38626245, 1.38841872, 1.39061442, 1.39284855, 1.39512011,
       1.39742807, 1.39977141, 1.40214907, 1.40456002, 1.40700316,
       1.40947743, 1.41198171, 1.4145149 , 1.41707587, 1.41966346,
       1.42227651, 1.42491384, 1.42757426, 1.43025653, 1.43295943,
       1.43568169, 1.43842205, 1.44117921, 1.44395185, 1.44673864,
       1.44953821, 1.45234919, 1.45517019, 1.45799977, 1.46083649,
