{'altitude': np.float64(7.597932062018912), 'velocity': np.float64(5.2359482275120255e-05), 'num_rockets': 8, 'volume': 150, 'parachute': {'deployed': True, 'ejected': True, 'diameter': np.float64(14.0), 'Cd': 0.615, 'cost_per_A': 1000.0, 'mass': 185.0}, 'heat_shield': {'ejected': True, 'mass': 225.0, 'diameter': 4.5, 'Cd': 0.35}, 'rocket': {'on': True, 'structure_mass': 8.0, 'initial_fuel_mass': np.float64(101.95590209960938), 'cost_per_kg': 1500, 'fuel_mass': np.float64(34.66828470860788), 'effective_exhaust_velocity': 4500.0, 'max_thrust': 3100.0, 'min_thrust': 40.0}, 'speed_control': {'on': False, 'Kp': 2000, 'Kd': 20, 'Ki': 50, 'target_velocity': -3.0}, 'position_control': {'on': True, 'Kp': 2000, 'Kd': 1000, 'Ki': 50, 'target_altitude': 7.6}, 'sky_crane': {'on': False, 'danger_altitude': 4.5, 'danger_speed': -1.0, 'mass': 35.0, 'area': 16.0, 'Cd': 0.9, 'max_cable': 7.6, 'velocity': -0.1}, 'rover': {'wheel_assembly': {'wheel': {'radius': np.float64(0.7), 'mass': 1}, 'speed_reducer': {'type': 'reverted', 'diam_pinion': 0.04, 'diam_gear': np.float64(0.05), 'mass': 1.5}, 'motor': {'torque_stall': 123.75, 'torque_noload': 0, 'speed_noload': 7.7, 'mass': 5.0, 'effcy_tau': array([  0.      ,   9.91875 ,  19.8375  ,  39.675   ,  74.390625,
       163.659375]), 'effcy': array([0.      , 0.7935  , 0.991875, 0.965425, 0.727375, 0.066125]), 'type': 'speed', 'cost': 300000.0}}, 'chassis': {'mass': np.float64(250.00000000618695), 'type': 'magnesium', 'specific_strength': 250, 'strength': 164750}, 'science_payload': {'mass': 75}, 'power_subsys': {'mass': 90, 'battery': {'battery_type': 'NiCD', 'num_modules': 10, 'mass': 6.69, 'cost': 250000, 'capacity': 90600.0}}, 'on_ground': True, 'telemetry': {'Time': array([0.00000000e+00, 8.00361246e-05, 1.60072249e-04, 9.60433495e-04,
       1.76079474e-03, 4.54225591e-03, 7.32371708e-03, 1.01051782e-02,
       2.11755148e-02, 3.22458513e-02, 4.33161879e-02, 7.99198423e-02,
       1.16523497e-01, 1.53127151e-01, 1.89730805e-01, 3.16997742e-01,
       4.44264678e-01, 5.71531614e-01, 6.98798550e-01, 1.02946378e+00,
       1.36012902e+00, 1.69079425e+00, 2.02145949e+00, 2.35212472e+00,
       2.79515494e+00, 3.23818516e+00, 3.68121538e+00, 4.12424560e+00,
       4.56727582e+00, 5.30637457e+00, 6.04547332e+00, 6.78457208e+00,
       7.52367083e+00, 8.52367083e+00, 9.52367083e+00, 1.05236708e+01,
       1.15236708e+01, 1.25236708e+01, 1.35236708e+01, 1.45236708e+01,
       1.55236708e+01, 1.65236708e+01, 1.75236708e+01, 1.85236708e+01,
       1.95236708e+01, 2.05236708e+01, 2.15236708e+01, 2.25236708e+01,
       2.35236708e+01, 2.45236708e+01, 2.55236708e+01, 2.65236708e+01,
       2.75236708e+01, 2.85236708e+01, 2.95236708e+01, 3.05236708e+01,
       3.15236708e+01, 3.25236708e+01, 3.35236708e+01, 3.45236708e+01,
       3.55236708e+01, 3.65236708e+01, 3.75236708e+01, 3.85236708e+01,
       3.95236708e+01, 4.05236708e+01, 4.15236708e+01, 4.25236708e+01,
       4.35236708e+01, 4.45236708e+01, 4.55236708e+01, 4.65236708e+01,
       4.75236708e+01, 4.85236708e+01, 4.95236708e+01, 5.05236708e+01,
       5.15236708e+01, 5.25236708e+01, 5.35236708e+01, 5.45236708e+01,
       5.55236708e+01, 5.65236708e+01, 5.75236708e+01, 5.85236708e+01,
       5.95236708e+01, 6.05236708e+01, 6.15236708e+01, 6.25236708e+01,
       6.35236708e+01, 6.45236708e+01, 6.55236708e+01, 6.65236708e+01,
       6.75236708e+01, 6.85236708e+01, 6.95236708e+01, 7.05236708e+01,
       7.15236708e+01, 7.25236708e+01, 7.35236708e+01, 7.45236708e+01,
       7.55236708e+01, 7.65236708e+01, 7.75236708e+01, 7.85236708e+01,
       7.95236708e+01, 8.05236708e+01, 8.15236708e+01, 8.25236708e+01,
       8.35236708e+01, 8.45236708e+01, 8.55236708e+01, 8.65236708e+01,
       8.75236708e+01, 8.85236708e+01, 8.95236708e+01, 9.05236708e+01,
       9.15236708e+01, 9.25236708e+01, 9.35236708e+01, 9.45236708e+01,
       9.55236708e+01, 9.65236708e+01, 9.75236708e+01, 9.85236708e+01,
       9.95236708e+01, 1.00523671e+02, 1.01523671e+02, 1.02523671e+02,
       1.03523671e+02, 1.04523671e+02, 1.05523671e+02, 1.06523671e+02,
       1.07523671e+02, 1.08523671e+02, 1.09523671e+02, 1.10523671e+02,
       1.11523671e+02, 1.12523671e+02, 1.13523671e+02, 1.14523671e+02,
       1.15523671e+02, 1.16523671e+02, 1.17523671e+02, 1.18523671e+02,
       1.19523671e+02, 1.20523671e+02, 1.21523671e+02, 1.22523671e+02,
       1.23523671e+02, 1.24523671e+02, 1.25523671e+02, 1.26523671e+02,
       1.27523671e+02, 1.28523671e+02, 1.29523671e+02, 1.30523671e+02,
       1.31523671e+02, 1.32523671e+02, 1.33523671e+02, 1.34523671e+02,
       1.35523671e+02, 1.36523671e+02, 1.37523671e+02, 1.38523671e+02,
       1.39523671e+02, 1.40523671e+02, 1.41523671e+02, 1.42523671e+02,
       1.43523671e+02, 1.44523671e+02, 1.45523671e+02, 1.46523671e+02,
       1.47523671e+02, 1.48523671e+02, 1.49523671e+02, 1.50523671e+02,
       1.51523671e+02, 1.52523671e+02, 1.53523671e+02, 1.54523671e+02,
       1.55523671e+02, 1.56523671e+02, 1.57523671e+02, 1.58523671e+02,
       1.59523671e+02, 1.60523671e+02, 1.61523671e+02, 1.62523671e+02,
       1.63523671e+02, 1.64523671e+02, 1.65523671e+02, 1.66523671e+02,
       1.67523671e+02, 1.68523671e+02, 1.69523671e+02, 1.70523671e+02,
       1.71523671e+02, 1.72523671e+02, 1.73523671e+02, 1.74523671e+02,
       1.75523671e+02, 1.76523671e+02, 1.77523671e+02, 1.78523671e+02,
       1.79523671e+02, 1.80523671e+02, 1.81523671e+02, 1.82523671e+02,
       1.83523671e+02, 1.84523671e+02, 1.85523671e+02, 1.86523671e+02,
       1.87523671e+02, 1.88523671e+02, 1.89523671e+02, 1.90523671e+02,
       1.91523671e+02, 1.92523671e+02, 1.93523671e+02, 1.94523671e+02,
       1.95523671e+02, 1.96523671e+02, 1.97523671e+02, 1.98523671e+02,
       1.99523671e+02, 2.00523671e+02, 2.01523671e+02, 2.02523671e+02,
       2.03523671e+02, 2.04523671e+02, 2.05523671e+02, 2.06523671e+02,
       2.07523671e+02, 2.08523671e+02, 2.09523671e+02, 2.10523671e+02,
       2.11523671e+02, 2.12523671e+02, 2.13523671e+02, 2.14523671e+02,
       2.15523671e+02, 2.16523671e+02, 2.17523671e+02, 2.18523671e+02,
       2.19523671e+02, 2.20523671e+02, 2.21523671e+02, 2.22523671e+02,
       2.23523671e+02, 2.24523671e+02, 2.25523671e+02, 2.26523671e+02,
       2.27523671e+02, 2.28523671e+02, 2.29523671e+02, 2.30523671e+02,
       2.31523671e+02, 2.32523671e+02, 2.33523671e+02, 2.34523671e+02,
       2.35523671e+02, 2.36523671e+02, 2.37523671e+02, 2.38523671e+02,
       2.39523671e+02, 2.40523671e+02, 2.41523671e+02, 2.42523671e+02,
       2.43523671e+02, 2.44523671e+02, 2.45523671e+02, 2.46523671e+02,
       2.47523671e+02, 2.48523671e+02, 2.49523671e+02, 2.50523671e+02,
       2.51523671e+02, 2.52523671e+02, 2.53523671e+02, 2.54523671e+02,
       2.55523671e+02, 2.56523671e+02, 2.57523671e+02, 2.58523671e+02,
       2.59523671e+02, 2.60523671e+02, 2.61523671e+02, 2.62523671e+02,
       2.63523671e+02, 2.64523671e+02, 2.65523671e+02, 2.66523671e+02,
       2.67523671e+02, 2.68523671e+02, 2.69523671e+02, 2.70523671e+02,
       2.71523671e+02, 2.72523671e+02, 2.73523671e+02, 2.74523671e+02,
       2.75523671e+02, 2.76523671e+02, 2.77523671e+02, 2.78523671e+02,
       2.79523671e+02, 2.80523671e+02, 2.81523671e+02, 2.82523671e+02,
       2.83523671e+02, 2.84523671e+02, 2.85523671e+02, 2.86523671e+02,
       2.87523671e+02, 2.88523671e+02, 2.89523671e+02, 2.90523671e+02,
       2.91523671e+02, 2.92523671e+02, 2.93523671e+02, 2.94523671e+02,
       2.95523671e+02, 2.96523671e+02, 2.97523671e+02, 2.98523671e+02,
       2.99523671e+02, 3.00523671e+02, 3.01523671e+02, 3.02523671e+02,
       3.03523671e+02, 3.04523671e+02, 3.05523671e+02, 3.06523671e+02,
       3.07523671e+02, 3.08523671e+02, 3.09523671e+02, 3.10523671e+02,
       3.11523671e+02, 3.12523671e+02, 3.13523671e+02, 3.14523671e+02,
       3.15523671e+02, 3.16523671e+02, 3.17523671e+02, 3.18523671e+02,
       3.19523671e+02, 3.20523671e+02, 3.21523671e+02, 3.22523671e+02,
       3.23523671e+02, 3.24523671e+02, 3.25523671e+02, 3.26523671e+02,
       3.27523671e+02, 3.28523671e+02, 3.29523671e+02, 3.30523671e+02,
       3.31523671e+02, 3.32523671e+02, 3.33523671e+02, 3.34523671e+02,
       3.35523671e+02, 3.36523671e+02, 3.37523671e+02, 3.38523671e+02,
       3.39523671e+02, 3.40523671e+02, 3.41523671e+02, 3.42523671e+02,
       3.43523671e+02, 3.44523671e+02, 3.45523671e+02, 3.46523671e+02,
       3.47523671e+02, 3.47913096e+02]), 'completion_time': np.float64(347.91309560838533), 'velocity': array([0.3125    , 0.31267668, 0.31285335, 0.3146188 , 0.31638283,
       0.32250299, 0.32860619, 0.33469213, 0.35874331, 0.38252298,
       0.406034  , 0.48189797, 0.55496645, 0.62534552, 0.69313697,
       0.91001248, 1.10048824, 1.26788804, 1.41509578, 1.72063546,
       1.94114526, 2.10110487, 2.2180793 , 2.30474041, 2.38878785,
       2.44847134, 2.49248128, 2.52652195, 2.55433685, 2.59213926,
       2.6247686 , 2.65478128, 2.68297251, 2.71894201, 2.75293271,
       2.78523492, 2.8159096 , 2.84492815, 2.87224614, 2.89782863,
       2.9216471 , 2.94368225, 2.96392401, 2.9823702 , 2.99902586,
       3.01390316, 3.02702136, 3.03840636, 3.0480908 , 3.05611337,
       3.06251807, 3.06735387, 3.07067444, 3.07253767, 3.07300514,
       3.07214157, 3.07001438, 3.06669335, 3.06224992, 3.05675698,
       3.05028842, 3.0429188 , 3.03472286, 3.0257753 , 3.01615038,
       3.00592175, 2.99516215, 2.98394318, 2.97233518, 2.96040699,
       2.9482259 , 2.93585746, 2.9233655 , 2.91081204, 2.89825718,
       2.88575912, 2.87337426, 2.86115721, 2.84916081, 2.83743614,
       2.82603271, 2.81499845, 2.80437989, 2.79422227, 2.78456964,
       2.775465  , 2.76695052, 2.75906758, 2.75185706, 2.74535944,
       2.739615  , 2.73466403, 2.73054703, 2.7273049 , 2.72497925,
       2.72361241, 2.72323769, 2.72385776, 2.72544077, 2.72794704,
       2.7313331 , 2.73555707, 2.74057277, 2.74633479, 2.75280017,
       2.7599268 , 2.76767198, 2.7759922 , 2.78484335, 2.79418076,
       2.80395903, 2.8141318 , 2.82465159, 2.83546967, 2.84653601,
       2.85779912, 2.869206  , 2.8807021 , 2.89223111, 2.90373501,
       2.91515409, 2.92642694, 2.9374904 , 2.94827963, 2.95872815,
       2.96876793, 2.97832952, 2.98734215, 2.99573392, 3.00343195,
       3.01036265, 3.01645742, 3.0216754 , 3.02600725, 3.02946265,
       3.03205725, 3.03380864, 3.03473314, 3.03484956, 3.03417734,
       3.03273921, 3.0305586 , 3.02765861, 3.02406261, 3.0197947 ,
       3.01487973, 3.009343  , 3.00321009, 2.99650682, 2.98925919,
       2.9814933 , 2.97323534, 2.96451143, 2.95534765, 2.94576993,
       2.935804  , 2.92547537, 2.91480925, 2.90383053, 2.89256374,
       2.881033  , 2.86926198, 2.85727393, 2.84509157, 2.83273722,
       2.82023487, 2.80761269, 2.79490224, 2.78213588, 2.76934519,
       2.75656061, 2.7438116 , 2.7311267 , 2.71853355, 2.70605882,
       2.69372815, 2.68156624, 2.66959696, 2.6578433 , 2.64632745,
       2.63507082, 2.62409404, 2.61341712, 2.60305937, 2.59303953,
       2.58337583, 2.57408599, 2.56518731, 2.5566967 , 2.54863074,
       2.54100576, 2.5338379 , 2.52714312, 2.52093733, 2.51523641,
       2.51005627, 2.50541293, 2.50132259, 2.4978017 , 2.494867  ,
       2.49253563, 2.49082518, 2.48975363, 2.4893339 , 2.48956515,
       2.49043585, 2.49193044, 2.49403257, 2.4967261 , 2.49999536,
       2.50382594, 2.50820234, 2.51310946, 2.51853317, 2.52445987,
       2.53087594, 2.53776772, 2.54512155, 2.55292382, 2.56116089,
       2.56981903, 2.57888431, 2.58834265, 2.59817969, 2.60838077,
       2.61893089, 2.62981465, 2.64101621, 2.65251925, 2.66430691,
       2.67636174, 2.6886657 , 2.70120005, 2.71394539, 2.72688154,
       2.73998758, 2.75324174, 2.76662144, 2.78010322, 2.7936627 ,
       2.80727455, 2.82091329, 2.83455713, 2.84819017, 2.86179914,
       2.8753712 , 2.88889316, 2.90235146, 2.91573227, 2.92902142,
       2.94220436, 2.95526614, 2.96819141, 2.98096444, 2.99356914,
       3.00598904, 3.01820734, 3.03020685, 3.04197008, 3.05347925,
       3.06471626, 3.07566272, 3.0863    , 3.09660923, 3.10657134,
       3.11616703, 3.1253769 , 3.13418139, 3.14256084, 3.15049552,
       3.15796568, 3.16495157, 3.17143347, 3.17739177, 3.18280778,
       3.18767014, 3.19197842, 3.19574084, 3.19896663, 3.20166624,
       3.20385032, 3.20553131, 3.20672204, 3.20743517, 3.20768351,
       3.20748027, 3.2068391 , 3.20577394, 3.2042989 , 3.20242832,
       3.20017667, 3.19755858, 3.19458881, 3.19128221, 3.18765368,
       3.18371818, 3.17949068, 3.17498618, 3.17021961, 3.16520591,
       3.15995995, 3.1544965 , 3.14883027, 3.14297587, 3.13694777,
       3.13076032, 3.12442755, 3.11796292, 3.11137937, 3.10468952,
       3.0979058 , 3.09104051, 3.08410574, 3.07711342, 3.07007529,
       3.06300292, 3.0559077 , 3.0488008 , 3.04169325, 3.03459587,
       3.0275193 , 3.02047401, 3.01347026, 3.00651818, 2.99962767,
       2.99280849, 2.98607023, 2.97942231, 2.97287399, 2.96643438,
       2.96011244, 2.95391699, 2.94785673, 2.9419402 , 2.93617586,
       2.93057202, 2.92513692, 2.91987867, 2.91480532, 2.90992483,
       2.90524509, 2.90077394, 2.89651917, 2.89248852, 2.88868972,
       2.88513047, 2.88181847, 2.87876142, 2.87596704, 2.87344309,
       2.87119735, 2.86923768, 2.867572  , 2.8662083 , 2.86515468,
       2.86441936, 2.86401065, 2.86393705, 2.86420717, 2.86482983,
       2.86581402, 2.86716894, 2.86890403, 2.87102896, 2.87355368,
       2.87648841, 2.87984369, 2.88363039, 2.88785972, 2.89254328,
       2.89769306, 2.90332149, 2.90944145, 2.91196058]), 'position': array([0.00000000e+00, 2.50232223e-05, 5.00602401e-05, 3.01644358e-04,
       5.54609438e-04, 1.44376664e-03, 2.34943054e-03, 3.27190667e-03,
       7.11010111e-03, 1.12128139e-02, 1.55773107e-02, 3.18355548e-02,
       5.08206312e-02, 7.24312643e-02, 9.65702356e-02, 1.98924673e-01,
       3.27182448e-01, 4.78169476e-01, 6.49131562e-01, 1.17002930e+00,
       1.77678381e+00, 2.44599516e+00, 3.16086001e+00, 3.90924316e+00,
       4.94965513e+00, 6.02137510e+00, 7.11600296e+00, 8.22798656e+00,
       9.35364322e+00, 1.12566630e+01, 1.31852903e+01, 1.51365349e+01,
       1.71090662e+01, 1.98098281e+01, 2.25455936e+01, 2.53145412e+01,
       2.81149842e+01, 3.09452678e+01, 3.38037130e+01, 3.66887513e+01,
       3.95986099e+01, 4.25314371e+01, 4.54854006e+01, 4.84586992e+01,
       5.14495451e+01, 5.44561576e+01, 5.74767679e+01, 6.05096270e+01,
       6.35530168e+01, 6.66052560e+01, 6.96647049e+01, 7.27297700e+01,
       7.57989087e+01, 7.88706342e+01, 8.19435196e+01, 8.50162014e+01,
       8.80873821e+01, 9.11558363e+01, 9.42204051e+01, 9.72800007e+01,
       1.00333609e+02, 1.03380292e+02, 1.06419186e+02, 1.09449502e+02,
       1.12470526e+02, 1.15481616e+02, 1.18482207e+02, 1.21471802e+02,
       1.24449977e+02, 1.27416379e+02, 1.30370720e+02, 1.33312781e+02,
       1.36242406e+02, 1.39159501e+02, 1.42064033e+02, 1.44956034e+02,
       1.47835588e+02, 1.50702838e+02, 1.53557976e+02, 1.56401250e+02,
       1.59232955e+02, 1.62053438e+02, 1.64863090e+02, 1.67662351e+02,
       1.70451703e+02, 1.73231673e+02, 1.76002830e+02, 1.78765784e+02,
       1.81521189e+02, 1.84269736e+02, 1.87012159e+02, 1.89749231e+02,
       1.92481765e+02, 1.95210616e+02, 1.97936683e+02, 2.00660901e+02,
       2.03384245e+02, 2.06107709e+02, 2.08832371e+02, 2.11559124e+02,
       2.14288834e+02, 2.17022278e+02, 2.19760285e+02, 2.22503666e+02,
       2.25253167e+02, 2.28009472e+02, 2.30773219e+02, 2.33545002e+02,
       2.36325373e+02, 2.39114841e+02, 2.41913872e+02, 2.44722882e+02,
       2.47542242e+02, 2.50372274e+02, 2.53213254e+02, 2.56065402e+02,
       2.58928889e+02, 2.61803835e+02, 2.64690301e+02, 2.67588289e+02,
       2.70497743e+02, 2.73418548e+02, 2.76350526e+02, 2.79293437e+02,
       2.82246972e+02, 2.85210757e+02, 2.88184348e+02, 2.91167232e+02,
       2.94158825e+02, 2.97158469e+02, 3.00165433e+02, 3.03178916e+02,
       3.06198057e+02, 3.09221975e+02, 3.12249785e+02, 3.15280619e+02,
       3.18313539e+02, 3.21347756e+02, 3.24382483e+02, 3.27416997e+02,
       3.30450510e+02, 3.33482229e+02, 3.36511404e+02, 3.39537325e+02,
       3.42559310e+02, 3.45576702e+02, 3.48588866e+02, 3.51595194e+02,
       3.54595102e+02, 3.57588032e+02, 3.60573453e+02, 3.63550859e+02,
       3.66519773e+02, 3.69479741e+02, 3.72430336e+02, 3.75371156e+02,
       3.78301828e+02, 3.81222000e+02, 3.84131347e+02, 3.87029569e+02,
       3.89916391e+02, 3.92791560e+02, 3.95654847e+02, 3.98506048e+02,
       4.01344978e+02, 4.04171477e+02, 4.06985413e+02, 4.09786680e+02,
       4.12575206e+02, 4.15350950e+02, 4.18113904e+02, 4.20864089e+02,
       4.23601554e+02, 4.26326378e+02, 4.29038665e+02, 4.31738545e+02,
       4.34426177e+02, 4.37101741e+02, 4.39765443e+02, 4.42417507e+02,
       4.45058184e+02, 4.47687742e+02, 4.50306472e+02, 4.52914682e+02,
       4.55512704e+02, 4.58100883e+02, 4.60679583e+02, 4.63249189e+02,
       4.65810098e+02, 4.68362727e+02, 4.70907509e+02, 4.73444894e+02,
       4.75975346e+02, 4.78499346e+02, 4.81017392e+02, 4.83529996e+02,
       4.86037687e+02, 4.88541009e+02, 4.91040525e+02, 4.93536811e+02,
       4.96030463e+02, 4.98522093e+02, 5.01012330e+02, 5.03501820e+02,
       5.05991281e+02, 5.08481323e+02, 5.10972557e+02, 5.13465589e+02,
       5.15961017e+02, 5.18459426e+02, 5.20961336e+02, 5.23467311e+02,
       5.25977917e+02, 5.28493691e+02, 5.31015145e+02, 5.33542772e+02,
       5.36077054e+02, 5.38618459e+02, 5.41167444e+02, 5.43724449e+02,
       5.46289903e+02, 5.48864220e+02, 5.51447800e+02, 5.54041029e+02,
       5.56644278e+02, 5.59257903e+02, 5.61882247e+02, 5.64517635e+02,
       5.67164377e+02, 5.69822765e+02, 5.72493076e+02, 5.75175568e+02,
       5.77870481e+02, 5.80578035e+02, 5.83298431e+02, 5.86031850e+02,
       5.88778451e+02, 5.91538371e+02, 5.94311725e+02, 5.97098602e+02,
       5.99899067e+02, 6.02713160e+02, 6.05540896e+02, 6.08382271e+02,
       6.11237268e+02, 6.14105855e+02, 6.16987991e+02, 6.19883617e+02,
       6.22792665e+02, 6.25715049e+02, 6.28650669e+02, 6.31599414e+02,
       6.34561153e+02, 6.37535743e+02, 6.40523023e+02, 6.43522817e+02,
       6.46534933e+02, 6.49559159e+02, 6.52595268e+02, 6.55643014e+02,
       6.58702135e+02, 6.61772350e+02, 6.64853358e+02, 6.67944840e+02,
       6.71046460e+02, 6.74157860e+02, 6.77278663e+02, 6.80408475e+02,
       6.83546880e+02, 6.86693444e+02, 6.89847712e+02, 6.93009210e+02,
       6.96177444e+02, 6.99351899e+02, 7.02532043e+02, 7.05717327e+02,
       7.08907198e+02, 7.12101050e+02, 7.15298369e+02, 7.18498642e+02,
       7.21701401e+02, 7.24906128e+02, 7.28112301e+02, 7.31319423e+02,
       7.34527023e+02, 7.37734642e+02, 7.40941839e+02, 7.44148181e+02,
       7.47353253e+02, 7.50556650e+02, 7.53757985e+02, 7.56956884e+02,
       7.60152988e+02, 7.63345953e+02, 7.66535448e+02, 7.69721161e+02,
       7.72902790e+02, 7.76080053e+02, 7.79252678e+02, 7.82420412e+02,
       7.85583016e+02, 7.88740263e+02, 7.91891944e+02, 7.95037863e+02,
       7.98177841e+02, 8.01311709e+02, 8.04439316e+02, 8.07560523e+02,
       8.10675204e+02, 8.13783248e+02, 8.16884554e+02, 8.19979035e+02,
       8.23066615e+02, 8.26147230e+02, 8.29220829e+02, 8.32287371e+02,
       8.35346829e+02, 8.38399183e+02, 8.41444430e+02, 8.44482573e+02,
       8.47513628e+02, 8.50537622e+02, 8.53554590e+02, 8.56564580e+02,
       8.59567647e+02, 8.62563859e+02, 8.65553291e+02, 8.68536029e+02,
       8.71512169e+02, 8.74481814e+02, 8.77445077e+02, 8.80402081e+02,
       8.83352957e+02, 8.86297844e+02, 8.89236890e+02, 8.92170251e+02,
       8.95098091e+02, 8.98020583e+02, 9.00937909e+02, 9.03850258e+02,
       9.06757826e+02, 9.09660819e+02, 9.12559448e+02, 9.15453934e+02,
       9.18344504e+02, 9.21231394e+02, 9.24114849e+02, 9.26995118e+02,
       9.29872461e+02, 9.32747144e+02, 9.35619441e+02, 9.38489635e+02,
       9.41358016e+02, 9.44224882e+02, 9.47090538e+02, 9.49955299e+02,
       9.52819487e+02, 9.55683433e+02, 9.58547477e+02, 9.61411967e+02,
       9.64277259e+02, 9.67143720e+02, 9.70011726e+02, 9.72881660e+02,
       9.75753919e+02, 9.78628906e+02, 9.81507038e+02, 9.84388740e+02,
