{'altitude': np.float64(7.597949287756666), 'velocity': np.float64(5.1923276364561204e-05), 'num_rockets': 8, 'volume': 150, 'parachute': {'deployed': True, 'ejected': True, 'diameter': np.float64(14.000006342331018), 'Cd': 0.615, 'cost_per_A': 1000.0, 'mass': 185.0}, 'heat_shield': {'ejected': True, 'mass': 225.0, 'diameter': 4.5, 'Cd': 0.35}, 'rocket': {'on': True, 'structure_mass': 8.0, 'initial_fuel_mass': np.float64(104.02342377924809), 'cost_per_kg': 1500, 'fuel_mass': np.float64(35.970390969558615), 'effective_exhaust_velocity': 4500.0, 'max_thrust': 3100.0, 'min_thrust': 40.0}, 'speed_control': {'on': False, 'Kp': 2000, 'Kd': 20, 'Ki': 50, 'target_velocity': -3.0}, 'position_control': {'on': True, 'Kp': 2000, 'Kd': 1000, 'Ki': 50, 'target_altitude': 7.6}, 'sky_crane': {'on': False, 'danger_altitude': 4.5, 'danger_speed': -1.0, 'mass': 35.0, 'area': 16.0, 'Cd': 0.9, 'max_cable': 7.6, 'velocity': -0.1}, 'rover': {'wheel_assembly': {'wheel': {'radius': np.float64(0.6996093945387067), 'mass': 1}, 'speed_reducer': {'type': 'reverted', 'diam_pinion': 0.04, 'diam_gear': np.float64(0.057956228813155), 'mass': 1.5}, 'motor': {'torque_stall': 165, 'torque_noload': 0, 'speed_noload': 3.85, 'mass': 5.0, 'effcy_tau': array([  0,  10,  20,  40,  75, 165]), 'effcy': array([0.  , 0.6 , 0.75, 0.73, 0.55, 0.05]), 'type': 'base', 'cost': 250000.0}}, 'chassis': {'mass': np.float64(250.0961911606083), 'type': 'magnesium', 'specific_strength': 250, 'strength': 164750}, 'science_payload': {'mass': 75}, 'power_subsys': {'mass': 90, 'battery': {'battery_type': 'NiMH', 'num_modules': 10, 'mass': 21.63, 'cost': 1250000, 'capacity': 648000.0}}, 'on_ground': True, 'telemetry': {'Time': array([0.00000000e+00, 6.23033214e-05, 1.24606643e-04, 7.47639857e-04,
       1.37067307e-03, 3.49011124e-03, 5.60954940e-03, 7.72898757e-03,
       1.70248133e-02, 2.63206390e-02, 3.56164647e-02, 5.93029656e-02,
       8.29894666e-02, 1.06675968e-01, 1.30362469e-01, 1.91518685e-01,
       2.52674902e-01, 3.13831119e-01, 3.74987336e-01, 4.36143553e-01,
       5.30964146e-01, 6.25784740e-01, 7.20605333e-01, 8.15425927e-01,
       9.10246521e-01, 1.06118418e+00, 1.21212184e+00, 1.36305951e+00,
       1.51399717e+00, 1.84422655e+00, 2.17445594e+00, 2.50468533e+00,
       3.50468533e+00, 4.50468533e+00, 5.50468533e+00, 6.50468533e+00,
       7.50468533e+00, 8.50468533e+00, 9.50468533e+00, 1.05046853e+01,
       1.15046853e+01, 1.25046853e+01, 1.35046853e+01, 1.45046853e+01,
       1.55046853e+01, 1.65046853e+01, 1.75046853e+01, 1.85046853e+01,
       1.95046853e+01, 2.05046853e+01, 2.15046853e+01, 2.25046853e+01,
       2.35046853e+01, 2.45046853e+01, 2.55046853e+01, 2.65046853e+01,
       2.75046853e+01, 2.85046853e+01, 2.95046853e+01, 3.05046853e+01,
       3.15046853e+01, 3.25046853e+01, 3.35046853e+01, 3.45046853e+01,
       3.55046853e+01, 3.65046853e+01, 3.75046853e+01, 3.85046853e+01,
       3.95046853e+01, 4.05046853e+01, 4.15046853e+01, 4.25046853e+01,
       4.35046853e+01, 4.45046853e+01, 4.55046853e+01, 4.65046853e+01,
       4.75046853e+01, 4.85046853e+01, 4.95046853e+01, 5.05046853e+01,
       5.15046853e+01, 5.25046853e+01, 5.35046853e+01, 5.45046853e+01,
       5.55046853e+01, 5.65046853e+01, 5.75046853e+01, 5.85046853e+01,
       5.95046853e+01, 6.05046853e+01, 6.15046853e+01, 6.25046853e+01,
       6.35046853e+01, 6.45046853e+01, 6.55046853e+01, 6.65046853e+01,
       6.75046853e+01, 6.85046853e+01, 6.95046853e+01, 7.05046853e+01,
       7.15046853e+01, 7.25046853e+01, 7.35046853e+01, 7.45046853e+01,
       7.55046853e+01, 7.65046853e+01, 7.75046853e+01, 7.85046853e+01,
       7.95046853e+01, 8.05046853e+01, 8.15046853e+01, 8.25046853e+01,
       8.35046853e+01, 8.45046853e+01, 8.55046853e+01, 8.65046853e+01,
       8.75046853e+01, 8.85046853e+01, 8.95046853e+01, 9.05046853e+01,
       9.15046853e+01, 9.25046853e+01, 9.35046853e+01, 9.45046853e+01,
       9.55046853e+01, 9.65046853e+01, 9.75046853e+01, 9.85046853e+01,
       9.95046853e+01, 1.00504685e+02, 1.01504685e+02, 1.02504685e+02,
       1.03504685e+02, 1.04504685e+02, 1.05504685e+02, 1.06504685e+02,
       1.07504685e+02, 1.08504685e+02, 1.09504685e+02, 1.10504685e+02,
       1.11504685e+02, 1.12504685e+02, 1.13504685e+02, 1.14504685e+02,
       1.15504685e+02, 1.16504685e+02, 1.17504685e+02, 1.18504685e+02,
       1.19504685e+02, 1.20504685e+02, 1.21504685e+02, 1.22504685e+02,
       1.23504685e+02, 1.24504685e+02, 1.25504685e+02, 1.26504685e+02,
       1.27504685e+02, 1.28504685e+02, 1.29504685e+02, 1.30504685e+02,
       1.31504685e+02, 1.32504685e+02, 1.33504685e+02, 1.34504685e+02,
       1.35504685e+02, 1.36504685e+02, 1.37504685e+02, 1.38504685e+02,
       1.39504685e+02, 1.40504685e+02, 1.41504685e+02, 1.42504685e+02,
       1.43504685e+02, 1.44504685e+02, 1.45504685e+02, 1.46504685e+02,
       1.47504685e+02, 1.48504685e+02, 1.49504685e+02, 1.50504685e+02,
       1.51504685e+02, 1.52504685e+02, 1.53504685e+02, 1.54504685e+02,
       1.55504685e+02, 1.56504685e+02, 1.57504685e+02, 1.58504685e+02,
       1.59504685e+02, 1.60504685e+02, 1.61504685e+02, 1.62504685e+02,
       1.63504685e+02, 1.64504685e+02, 1.65504685e+02, 1.66504685e+02,
       1.67504685e+02, 1.68504685e+02, 1.69504685e+02, 1.70504685e+02,
       1.71504685e+02, 1.72504685e+02, 1.73504685e+02, 1.74504685e+02,
       1.75504685e+02, 1.76504685e+02, 1.77504685e+02, 1.78504685e+02,
       1.79504685e+02, 1.80504685e+02, 1.81504685e+02, 1.82504685e+02,
       1.83504685e+02, 1.84504685e+02, 1.85504685e+02, 1.86504685e+02,
       1.87504685e+02, 1.88504685e+02, 1.89504685e+02, 1.90504685e+02,
       1.91504685e+02, 1.92504685e+02, 1.93504685e+02, 1.94504685e+02,
       1.95504685e+02, 1.96504685e+02, 1.97504685e+02, 1.98504685e+02,
       1.99504685e+02, 2.00504685e+02, 2.01504685e+02, 2.02504685e+02,
       2.03504685e+02, 2.04504685e+02, 2.05504685e+02, 2.06504685e+02,
       2.07504685e+02, 2.08504685e+02, 2.09504685e+02, 2.10504685e+02,
       2.11504685e+02, 2.12504685e+02, 2.13504685e+02, 2.14504685e+02,
       2.15504685e+02, 2.16504685e+02, 2.17504685e+02, 2.18504685e+02,
       2.19504685e+02, 2.20504685e+02, 2.21504685e+02, 2.22504685e+02,
       2.23504685e+02, 2.24504685e+02, 2.25504685e+02, 2.26504685e+02,
       2.27504685e+02, 2.28504685e+02, 2.29504685e+02, 2.30504685e+02,
       2.31504685e+02, 2.32504685e+02, 2.33504685e+02, 2.34504685e+02,
       2.35504685e+02, 2.36504685e+02, 2.37504685e+02, 2.38504685e+02,
       2.39504685e+02, 2.40504685e+02, 2.41504685e+02, 2.42504685e+02,
       2.43504685e+02, 2.44504685e+02, 2.45504685e+02, 2.46504685e+02,
       2.47504685e+02, 2.48504685e+02, 2.49504685e+02, 2.50504685e+02,
       2.51504685e+02, 2.52504685e+02, 2.53504685e+02, 2.54504685e+02,
       2.55504685e+02, 2.56504685e+02, 2.57504685e+02, 2.58504685e+02,
       2.59504685e+02, 2.60504685e+02, 2.61504685e+02, 2.62504685e+02,
       2.63504685e+02, 2.64504685e+02, 2.65504685e+02, 2.66504685e+02,
       2.67504685e+02, 2.68504685e+02, 2.69504685e+02, 2.70504685e+02,
       2.71504685e+02, 2.72504685e+02, 2.73504685e+02, 2.74504685e+02,
       2.75504685e+02, 2.76504685e+02, 2.77504685e+02, 2.78504685e+02,
       2.79504685e+02, 2.80504685e+02, 2.81504685e+02, 2.82504685e+02,
       2.83504685e+02, 2.84504685e+02, 2.85504685e+02, 2.86504685e+02,
       2.87504685e+02, 2.88504685e+02, 2.89504685e+02, 2.90504685e+02,
       2.91504685e+02, 2.92504685e+02, 2.93504685e+02, 2.94504685e+02,
       2.95504685e+02, 2.96504685e+02, 2.97504685e+02, 2.98504685e+02,
       2.99504685e+02, 3.00504685e+02, 3.01504685e+02, 3.02504685e+02,
       3.03504685e+02, 3.04504685e+02, 3.05504685e+02, 3.06504685e+02,
       3.07504685e+02, 3.08504685e+02, 3.09504685e+02, 3.10504685e+02,
       3.11504685e+02, 3.12504685e+02, 3.13504685e+02, 3.14504685e+02,
       3.15504685e+02, 3.16504685e+02, 3.17504685e+02, 3.18504685e+02,
       3.19504685e+02, 3.20504685e+02, 3.21504685e+02, 3.22504685e+02,
       3.23504685e+02, 3.24504685e+02, 3.25504685e+02, 3.26504685e+02,
       3.27504685e+02, 3.28504685e+02, 3.29504685e+02, 3.30504685e+02,
       3.31504685e+02, 3.32504685e+02, 3.33504685e+02, 3.34504685e+02,
       3.35504685e+02, 3.36504685e+02, 3.37504685e+02, 3.38504685e+02,
       3.39504685e+02, 3.40504685e+02, 3.41504685e+02, 3.42504685e+02,
       3.43504685e+02, 3.44504685e+02, 3.45504685e+02, 3.46504685e+02,
       3.47504685e+02, 3.48504685e+02, 3.49504685e+02, 3.50504685e+02,
       3.51504685e+02, 3.52504685e+02, 3.53504685e+02, 3.54504685e+02,
       3.55504685e+02, 3.56504685e+02, 3.57504685e+02, 3.58504685e+02,
       3.59504685e+02, 3.60504685e+02, 3.61504685e+02, 3.62504685e+02,
       3.63504685e+02, 3.64504685e+02, 3.65504685e+02, 3.66504685e+02,
       3.67504685e+02, 3.68504685e+02, 3.69504685e+02, 3.70504685e+02,
       3.71504685e+02, 3.72504685e+02, 3.73504685e+02, 3.74504685e+02,
       3.75504685e+02, 3.76504685e+02, 3.77504685e+02, 3.78504685e+02,
       3.79504685e+02, 3.80504685e+02, 3.81504685e+02, 3.82504685e+02,
       3.83504685e+02, 3.84504685e+02, 3.85504685e+02, 3.86504685e+02,
       3.87504685e+02, 3.88504685e+02, 3.89504685e+02, 3.90504685e+02,
       3.91504685e+02, 3.92504685e+02, 3.93504685e+02, 3.94504685e+02,
       3.95504685e+02, 3.96504685e+02, 3.97504685e+02, 3.98504685e+02,
       3.99504685e+02, 4.00504685e+02, 4.01504685e+02, 4.02504685e+02,
       4.03504685e+02, 4.04504685e+02, 4.05504685e+02, 4.06504685e+02,
       4.07504685e+02, 4.08504685e+02, 4.09504685e+02, 4.10504685e+02,
       4.11504685e+02, 4.12504685e+02, 4.13504685e+02, 4.14504685e+02,
       4.15504685e+02, 4.16504685e+02, 4.17504685e+02, 4.18504685e+02,
       4.19504685e+02, 4.20504685e+02, 4.21504685e+02, 4.22504685e+02,
       4.23504685e+02, 4.24504685e+02, 4.25504685e+02, 4.26504685e+02,
       4.27504685e+02, 4.28504685e+02, 4.29504685e+02, 4.30504685e+02,
       4.31504685e+02, 4.32504685e+02, 4.33504685e+02, 4.34504685e+02,
       4.35504685e+02, 4.36504685e+02, 4.37504685e+02, 4.38504685e+02,
       4.39504685e+02, 4.40504685e+02, 4.41504685e+02, 4.42504685e+02,
       4.43504685e+02, 4.44504685e+02, 4.45504685e+02, 4.46504685e+02,
       4.47504685e+02, 4.48504685e+02, 4.49504685e+02, 4.50504685e+02,
       4.51504685e+02, 4.52504685e+02, 4.53504685e+02, 4.54504685e+02,
       4.55504685e+02, 4.56504685e+02, 4.57504685e+02, 4.58504685e+02,
       4.59504685e+02, 4.60504685e+02, 4.61504685e+02, 4.62504685e+02,
       4.63504685e+02, 4.64504685e+02, 4.65504685e+02, 4.66504685e+02,
       4.67504685e+02, 4.68504685e+02, 4.69504685e+02, 4.70504685e+02,
       4.71504685e+02, 4.72504685e+02, 4.73504685e+02, 4.74504685e+02,
       4.75504685e+02, 4.76504685e+02, 4.77504685e+02, 4.78504685e+02,
       4.79504685e+02, 4.80504685e+02, 4.81504685e+02, 4.82504685e+02,
       4.83504685e+02, 4.84504685e+02, 4.85504685e+02, 4.86504685e+02,
       4.87504685e+02, 4.88504685e+02, 4.89504685e+02, 4.90504685e+02,
       4.91504685e+02, 4.92504685e+02, 4.93504685e+02, 4.94504685e+02,
       4.95504685e+02, 4.96504685e+02, 4.97504685e+02, 4.98504685e+02,
       4.99504685e+02, 5.00504685e+02, 5.01504685e+02, 5.02504685e+02,
       5.03504685e+02, 5.04504685e+02, 5.05504685e+02, 5.06504685e+02,
       5.07504685e+02, 5.08504685e+02, 5.09504685e+02, 5.10504685e+02,
       5.11504685e+02, 5.12504685e+02, 5.13504685e+02, 5.14504685e+02,
       5.15504685e+02, 5.16504685e+02, 5.17504685e+02, 5.18504685e+02,
       5.19504685e+02, 5.20504685e+02, 5.21504685e+02, 5.22504685e+02,
       5.23504685e+02, 5.24504685e+02, 5.25504685e+02, 5.26504685e+02,
       5.27504685e+02, 5.28504685e+02, 5.29504685e+02, 5.30504685e+02,
       5.31504685e+02, 5.32504685e+02, 5.33504685e+02, 5.34504685e+02,
       5.35504685e+02, 5.36504685e+02, 5.37504685e+02, 5.38504685e+02,
       5.39504685e+02, 5.40504685e+02, 5.41504685e+02, 5.42504685e+02,
       5.43504685e+02, 5.44504685e+02, 5.45504685e+02, 5.46504685e+02,
       5.47504685e+02, 5.48504685e+02, 5.49504685e+02, 5.50504685e+02,
       5.51504685e+02, 5.52504685e+02, 5.53504685e+02, 5.54504685e+02,
       5.55504685e+02, 5.56504685e+02, 5.57504685e+02, 5.58504685e+02,
       5.59504685e+02, 5.60504685e+02, 5.61504685e+02, 5.62504685e+02,
       5.63504685e+02, 5.64504685e+02, 5.65504685e+02, 5.66504685e+02,
       5.67504685e+02, 5.68504685e+02, 5.69504685e+02, 5.70504685e+02,
       5.71504685e+02, 5.72504685e+02, 5.73504685e+02, 5.74504685e+02,
       5.75504685e+02, 5.76504685e+02, 5.77504685e+02, 5.78504685e+02,
       5.79504685e+02, 5.80504685e+02, 5.81504685e+02, 5.82504685e+02,
       5.83504685e+02, 5.84504685e+02, 5.85504685e+02, 5.86504685e+02,
       5.87504685e+02, 5.88504685e+02, 5.89504685e+02, 5.90504685e+02,
       5.91504685e+02, 5.92504685e+02, 5.93504685e+02, 5.94504685e+02,
       5.95504685e+02, 5.96504685e+02, 5.97504685e+02, 5.98504685e+02,
       5.99504685e+02, 6.00504685e+02, 6.01504685e+02, 6.02504685e+02,
       6.03504685e+02, 6.04504685e+02, 6.05504685e+02, 6.06504685e+02,
       6.07504685e+02, 6.08504685e+02, 6.09504685e+02, 6.10504685e+02,
       6.11504685e+02, 6.12504685e+02, 6.13504685e+02, 6.14504685e+02,
       6.15504685e+02, 6.16504685e+02, 6.17504685e+02, 6.18504685e+02,
       6.19504685e+02, 6.20504685e+02, 6.21504685e+02, 6.22504685e+02,
       6.23504685e+02, 6.24504685e+02, 6.25504685e+02, 6.26504685e+02,
       6.27504685e+02, 6.28504685e+02, 6.29504685e+02, 6.30504685e+02,
       6.31504685e+02, 6.32504685e+02, 6.33504685e+02, 6.34504685e+02,
       6.35504685e+02, 6.36504685e+02, 6.37504685e+02, 6.38504685e+02,
       6.39504685e+02, 6.40504685e+02, 6.41504685e+02, 6.42504685e+02,
       6.43504685e+02, 6.44504685e+02, 6.45504685e+02, 6.46504685e+02,
       6.47504685e+02, 6.48504685e+02, 6.49504685e+02, 6.50504685e+02,
       6.51504685e+02, 6.52504685e+02, 6.53504685e+02, 6.54504685e+02,
       6.55504685e+02, 6.56504685e+02, 6.57504685e+02, 6.58504685e+02,
       6.59504685e+02, 6.60504685e+02, 6.61504685e+02, 6.62504685e+02,
       6.63504685e+02, 6.64504685e+02, 6.65504685e+02, 6.66504685e+02,
       6.67504685e+02, 6.68504685e+02, 6.69504685e+02, 6.70504685e+02,
       6.71504685e+02, 6.72504685e+02, 6.73504685e+02, 6.74504685e+02,
       6.75504685e+02, 6.76504685e+02, 6.77504685e+02, 6.78504685e+02,
       6.79504685e+02, 6.80504685e+02, 6.81504685e+02, 6.82504685e+02,
       6.83504685e+02, 6.84504685e+02, 6.85504685e+02, 6.86504685e+02,
       6.87504685e+02, 6.88504685e+02, 6.89504685e+02, 6.90504685e+02,
       6.91504685e+02, 6.92504685e+02, 6.93504685e+02, 6.94504685e+02,
       6.95504685e+02, 6.96504685e+02, 6.97504685e+02, 6.98504685e+02,
       6.99504685e+02, 7.00504685e+02, 7.01504685e+02, 7.02504685e+02,
       7.03504685e+02, 7.04504685e+02, 7.05504685e+02, 7.06504685e+02,
       7.07504685e+02, 7.08504685e+02, 7.09504685e+02, 7.10504685e+02,
       7.11504685e+02, 7.12504685e+02, 7.13504685e+02, 7.14504685e+02,
       7.15504685e+02, 7.16504685e+02, 7.17504685e+02, 7.18504685e+02,
       7.19504685e+02, 7.20504685e+02, 7.21504685e+02, 7.22504685e+02,
       7.23504685e+02, 7.24504685e+02, 7.25504685e+02, 7.26504685e+02,
       7.27504685e+02, 7.28504685e+02, 7.29504685e+02, 7.30504685e+02,
       7.31504685e+02, 7.32504685e+02, 7.33504685e+02, 7.34504685e+02,
       7.35504685e+02, 7.36504685e+02, 7.37504685e+02, 7.38504685e+02,
       7.39504685e+02, 7.40504685e+02, 7.41504685e+02, 7.42504685e+02,
       7.43504685e+02, 7.44504685e+02, 7.45504685e+02, 7.46504685e+02,
       7.47504685e+02, 7.48504685e+02, 7.49504685e+02, 7.50504685e+02,
       7.51504685e+02, 7.52504685e+02, 7.53504685e+02, 7.54504685e+02,
       7.55504685e+02, 7.56504685e+02, 7.57504685e+02, 7.58504685e+02,
       7.59504685e+02, 7.60504685e+02, 7.61504685e+02, 7.62504685e+02,
       7.63504685e+02, 7.64504685e+02, 7.65504685e+02, 7.66504685e+02,
       7.67504685e+02, 7.68504685e+02, 7.69504685e+02, 7.70504685e+02,
       7.71504685e+02, 7.72504685e+02, 7.73504685e+02, 7.74504685e+02,
       7.75504685e+02, 7.76504685e+02, 7.77504685e+02, 7.78504685e+02,
       7.79504685e+02, 7.80504685e+02, 7.81504685e+02, 7.82504685e+02,
       7.83504685e+02, 7.84504685e+02, 7.85504685e+02, 7.86504685e+02,
       7.87504685e+02, 7.88504685e+02, 7.89504685e+02, 7.90504685e+02,
       7.91504685e+02, 7.92504685e+02, 7.93504685e+02, 7.94504685e+02,
       7.95504685e+02, 7.96504685e+02, 7.97504685e+02, 7.98504685e+02,
       7.99504685e+02, 8.00504685e+02, 8.01504685e+02, 8.02504685e+02,
       8.03504685e+02, 8.04504685e+02, 8.05504685e+02, 8.06504685e+02,
       8.07504685e+02, 8.08504685e+02, 8.09504685e+02, 8.10504685e+02,
       8.11504685e+02, 8.12504685e+02, 8.13504685e+02, 8.14504685e+02,
       8.15504685e+02, 8.16504685e+02, 8.17504685e+02, 8.18504685e+02,
       8.19504685e+02, 8.20504685e+02, 8.21504685e+02, 8.22504685e+02,
       8.23504685e+02, 8.24504685e+02, 8.25504685e+02, 8.26504685e+02,
       8.27504685e+02, 8.28504685e+02, 8.29504685e+02, 8.30504685e+02,
       8.31504685e+02, 8.32504685e+02, 8.33504685e+02, 8.34504685e+02,
       8.35504685e+02, 8.36504685e+02, 8.37504685e+02, 8.38504685e+02,
       8.39504685e+02, 8.40504685e+02, 8.41504685e+02, 8.42504685e+02,
       8.43504685e+02, 8.44504685e+02, 8.45504685e+02, 8.46504685e+02,
       8.47504685e+02, 8.48504685e+02, 8.49504685e+02, 8.50504685e+02,
       8.51504685e+02, 8.52504685e+02, 8.53504685e+02, 8.54504685e+02,
       8.55504685e+02, 8.56504685e+02, 8.57504685e+02, 8.58504685e+02,
       8.59504685e+02, 8.60051881e+02]), 'completion_time': np.float64(860.0518812322409), 'velocity': array([0.3125    , 0.3127269 , 0.31295374, 0.31521631, 0.31747226,
       0.32510063, 0.33265402, 0.34013153, 0.37205158, 0.40257973,
       0.43177368, 0.50050913, 0.56183632, 0.61656747, 0.66541897,
       0.76870611, 0.84579188, 0.90326865, 0.94610971, 0.97807304,
       1.01254183, 1.03458794, 1.0486274 , 1.0575703 , 1.06334369,
       1.06854201, 1.07143303, 1.0732796 , 1.07453956, 1.07642822,
       1.07775979, 1.07901748, 1.08292708, 1.08679086, 1.09059512,
       1.09433478, 1.09801238, 1.1016291 , 1.10518443, 1.10867765,
       1.11210815, 1.11547544, 1.11877903, 1.12201851, 1.12519344,
       1.12830345, 1.1313482 , 1.1343274 , 1.13724079, 1.14008814,
       1.14286926, 1.14558399, 1.14823223, 1.15081388, 1.1533289 ,
       1.15577727, 1.158159  , 1.16047416, 1.16272282, 1.16490509,
       1.16702113, 1.16907112, 1.17105525, 1.17297377, 1.17482695,
       1.17661507, 1.17833847, 1.17999748, 1.1815925 , 1.18312391,
       1.18459215, 1.18599767, 1.18734094, 1.18862247, 1.18984278,
       1.1910024 , 1.19210191, 1.19314189, 1.19412295, 1.1950457 ,
       1.1959108 , 1.1967189 , 1.19747068, 1.19816684, 1.19880809,
       1.19939515, 1.19992876, 1.20040967, 1.20083867, 1.20121651,
       1.20154401, 1.20182196, 1.20205118, 1.20223249, 1.20236673,
       1.20245474, 1.20249739, 1.20249551, 1.20245   , 1.20236172,
       1.20223156, 1.2020604 , 1.20184914, 1.20159868, 1.20130991,
       1.20098376, 1.20062113, 1.20022293, 1.19979009, 1.19932351,
       1.19882413, 1.19829287, 1.19773064, 1.19713838, 1.19651701,
       1.19586745, 1.19519063, 1.19448748, 1.19375891, 1.19300585,
       1.19222921, 1.19142992, 1.19060889, 1.18976703, 1.18890526,
       1.18802448, 1.18712559, 1.18620949, 1.18527709, 1.18432927,
       1.18336693, 1.18239095, 1.1814022 , 1.18040156, 1.17938991,
       1.17836811, 1.17733702, 1.1762975 , 1.17525039, 1.17419654,
       1.1731368 , 1.17207198, 1.17100293, 1.16993046, 1.1688554 ,
       1.16777855, 1.16670071, 1.1656227 , 1.1645453 , 1.16346929,
       1.16239547, 1.16132461, 1.16025747, 1.15919483, 1.15813745,
       1.15708607, 1.15604145, 1.15500432, 1.15397544, 1.15295552,
       1.1519453 , 1.1509455 , 1.14995683, 1.14898001, 1.14801575,
       1.14706474, 1.14612769, 1.1452053 , 1.14429824, 1.14340722,
       1.1425329 , 1.14167598, 1.14083712, 1.140017  , 1.13921629,
       1.13843566, 1.13767577, 1.13693728, 1.13622085, 1.13552715,
