time,velocity,position,power
0.0,0.3025,0.0,98.35871182268816
0.0001111528025307235,0.30262614128626764,3.3635554797175485e-05,98.22176032804808
0.000222305605061447,0.3027518436445162,6.728474764941924e-05,98.08513778976014
0.001333833630368682,0.30397136649072815,0.0004049418780477583,96.75202274376396
0.002445361655675917,0.30514946990695246,0.0007438859766409373,95.45101652258619
0.006880414064795677,0.3094927451339504,0.0021073955611515816,90.54284004743664
0.011315466473915438,0.31327574686327314,0.0034883142819220744,86.12448935743653
0.0157505188830352,0.316557986002448,0.004884793438924009,82.18289193955557
0.028359758472505714,0.3236643434558995,0.00892425777715788,73.30478689570866
0.04096899806197623,0.32836285862160874,0.013038554644944522,67.17626297588265
0.053578237651446745,0.3314987155635136,0.01720142750816481,62.9714632509886
0.06618747724091725,0.3336094806673201,0.021396176245675715,60.08955689511395
0.09517773297373738,0.3364263114158356,0.031103808773145253,56.178922851698374
0.12416798870655751,0.33762438138436296,0.040861889966214524,54.493205464526355
0.15315824443937764,0.3379046678072106,0.050648643234855406,54.096902987437915
0.18214850017219777,0.3378489662332527,0.06044599454798257,54.175718857364195
0.2111387559050179,0.337831112373446,0.07024233031184195,54.20097535129757
0.2625617974439264,0.3378281705141891,0.08761861483936607,54.20513669002805
0.31398483898283486,0.33791551784795787,0.10499259829512109,54.08154717515263
0.36540788052174333,0.33795897835381944,0.12236844885994339,54.02002752005116
0.4168309220606518,0.3379511705276866,0.1397463957228983,54.031081030887016
0.7207738545219858,0.33800648471262484,0.2424682539084786,53.952760691263116
1.0247167869833198,0.33804317742360357,0.3452082524522461,53.90079108934564
1.3286597194446537,0.338105777708601,0.44796498284089514,53.81209840108268
2.3286597194446537,0.3382974928996053,0.7862283690025742,53.54024716467538
3.3286597194446537,0.3384857084896053,1.124679368943094,53.273024969404744
4.328659719444653,0.338672929895872,1.4632822882347087,53.00688658961091
5.328659719444653,0.3388592263322019,1.802054183685786,52.7417386626309
6.328659719444653,0.33904456648286846,2.1410065793718838,52.477630660275466
7.328659719444653,0.33922895909668505,2.480142963127836,52.214555050701634
8.328659719444653,0.3394124050748485,2.8194633584821114,51.95251543310794
9.328659719444653,0.3395949026204672,3.158966859355934,51.691519236371626
10.328659719444653,0.3397764501500166,3.4986524403474286,51.431573570784366
11.328659719444653,0.3399570461983039,3.8385191084747747,51.172685362411364
12.328659719444653,0.340136689347525,4.178565898047814,50.91486145383724
13.328659719444653,0.34031537827542274,4.51879193256312,50.65810853440342
14.328659719444653,0.3404931116452868,4.859196243107766,50.40243329762078
15.328659719444653,0.3406698881615418,5.1997778304864735,50.14784236106749
16.32865971944465,0.34084570658169755,5.54053571355134,49.89434224869327
17.32865971944465,0.34102056571717937,5.881468930252294,49.64193938907116
18.32865971944465,0.34119446442758805,6.222576524098618,49.390640123149204
19.32865971944465,0.34136740161610335,6.563857536391187,49.14045071040921
20.32865971944465,0.34153937622875175,6.905311005347482,48.89137732947629
21.32865971944465,0.3417103872549336,7.246935967456846,48.64342607691366
22.32865971944465,0.3418804337276269,7.588731458364391,48.39660296648865
23.32865971944465,0.3420495147232083,7.930696513010848,48.150913928998705
24.32865971944465,0.34221762936115585,8.27283016552134,47.90636481227662
25.32865971944465,0.3423847768037764,8.615131449148018,47.66296138116851
26.32865971944465,0.34255095625597753,8.957599396299418,47.42070931745531
27.32865971944465,0.34271616696505175,9.300233038600012,47.17961421976518
28.32865971944465,0.3428804082204569,9.643031406944115,46.93968160349623
29.32865971944465,0.34304367935359126,9.985993531539613,46.700916900758344
30.32865971944465,0.34320597973756545,10.329118441947886,46.46332546032461
31.32865971944465,0.343367308786973,10.672405167124031,46.22691254759407
32.32865971944465,0.34352766595766165,11.015852735458035,45.991683344560435
33.32865971944465,0.34368705074650296,11.359460174816117,45.757642949790494
34.32865971944465,0.3438454626911616,11.703226512581798,45.524796378411324
35.32865971944465,0.34400290136986356,12.047150775696613,45.29314856210719
36.32865971944465,0.34415936640116285,12.391231990700508,45.06270434912423
37.32865971944465,0.3443148574437091,12.735469183772057,44.83346850428369
38.32865971944465,0.3444693741960122,13.079861380768428,44.6054457090055
39.32865971944465,0.34462291639620796,13.424407607265133,44.37864056133806
40.32865971944465,0.34477548382182266,13.769106888595527,44.15305757599763
41.32865971944465,0.34492707628953606,14.113958249890095,43.92870118441743
42.32865971944465,0.3450776936549456,14.45896071611547,43.705575734800675
43.32865971944465,0.34522733581232795,14.804113312113262,43.48368549218778
44.32865971944465,0.34537600269440166,15.14941506263858,43.263034638526314
45.32865971944465,0.3455236942720887,15.494864992398373,43.04362727275174
46.32865971944465,0.3456704105542752,15.84046212608953,42.82546741087578
47.32865971944465,0.34581615158757245,16.1862054884367,42.608558986081476
48.32865971944465,0.34596091745607715,16.532094104229888,42.39290584882729
49.32865971944465,0.34610470828113093,16.87812699836187,42.17851176695818
50.32865971944465,0.3462475242210803,17.224303195865264,41.96538042582383
51.32865971944465,0.34638936547103594,17.57062172194945,41.75351542840472
52.32865971944465,0.3465302322626316,17.917081602037182,41.5429202954459
53.32865971944465,0.34667012486378274,18.26368186180103,41.33359846559725
54.32865971944465,0.3468090435784452,18.610421527199517,41.125553295561865
55.32865971944465,0.34694698874637403,18.957299624513016,40.918788060249696
56.32865971944465,0.3470839607428809,19.30431518037948,40.71330595294081
57.32865971944465,0.3472199599785931,19.651467221829847,40.50911008545261
58.32865971944465,0.34735498689921124,19.998754776323235,40.30620348831657
59.32865971944465,0.34748904198526714,20.346176871781896,40.10458911095932
60.32865971944465,0.3476221257518822,20.69373253662594,39.90426982189164
61.32865971944465,0.3477542387485253,21.041420799807778,39.705248408904076
62.32865971944465,0.3478853815587706,21.389240690846368,39.50752757926787
63.32865971944465,0.348015554800056,21.737191239861204,39.311109959943145
64.32865971944466,0.34814475912344145,22.08527147760603,39.11599809779247
65.32865971944466,0.3482729952133667,22.433480435502375,38.92219445980228
66.32865971944466,0.34840026378741024,22.78181714567279,38.72970143330754
67.32865971944466,0.34852656559604805,23.130280640973876,38.53852132622479
68.32865971944466,0.34865190142241226,23.47886995502906,38.34865636728954
69.32865971944466,0.34877627208205,23.827584122261136,38.16010870630075
70.32865971944466,0.34889967842268316,24.17642217792453,37.97288041436905
71.32865971944466,0.3490221213239677,24.525383158137394,37.78697348417228
72.32865971944466,0.3491436016972535,24.874466099913395,37.60238983021615
73.32865971944466,0.34926412048534505,25.223670041193316,37.41913128909818
74.32865971944466,0.3493836786622613,25.57299402087634,37.237199619781286
75.32865971944466,0.3495022772329971,25.92243707885121,37.05659650386729
76.32865971944466,0.3496199172332845,26.271998256027025,36.87732354587945
77.32865971944466,0.3497365997293537,26.621676594363898,36.699382273549325
78.32865971944466,0.3498523258176969,26.971471136903332,36.522774138105284
79.32865971944466,0.34996709662482883,27.321380927798323,36.347500514571514
80.32865971944466,0.3500809133070513,27.67140501234333,36.17356270206652
81.32865971944466,0.3501937770502165,28.021542437003895,36.00096192410875
82.32865971944466,0.35030568906949056,28.371792249446074,35.829699328927184
83.32865971944466,0.3504166506091189,28.722153498565675,35.659775989774
84.32865971944466,0.35052666294219076,29.072625234517176,35.491192905245235
85.32865971944466,0.3506357273704056,29.423206508742467,35.323950999601514
86.32865971944466,0.3507438452238389,29.773896373999357,35.15805112309647
87.32865971944466,0.3508510178607096,30.124693884389814,34.99349405230714
88.32865971944466,0.3509572466671472,30.475598095388,34.830280490469576
89.32865971944466,0.35106253305696034,30.826608063868072,34.66841106781801
90.32865971944466,0.3511668784714056,31.17772284813172,34.50788634192684
91.32865971944466,0.35127028437895724,31.528941507935542,34.34870679805775
92.32865971944466,0.351372752275077,31.880263104518114,34.1908728495109
93.32865971944466,0.3514742836819857,32.231686700626874,34.03438483797715
94.32865971944466,0.35157488014843424,32.58321136054474,33.879243033897346
95.32865971944466,0.35167454324947667,32.93483615011661,33.725447636821336
96.32865971944466,0.3517732745862432,33.286560136775435,33.57299877577293
97.32865971944466,0.35187107578571386,33.63838238956826,33.42189650961763
98.32865971944466,0.3519679485004935,33.99030197918195,33.27214082743281
99.32865971944466,0.3520638944085874,34.342317977968676,33.12373164888139
100.32865971944466,0.3521589152131773,34.69442945997125,32.976668824588494
101.32865971944466,0.35225301264239905,35.04663550094814,32.83095213652113
102.32865971944466,0.35234618844911997,35.39893517839833,32.68658129837055
103.32865971944466,0.35243844441071825,35.75132757158596,32.54355595593773
104.32865971944466,0.35252978232886223,36.10381176156471,32.40187568752139
105.32865971944466,0.35262020402929123,36.45638683120194,32.26154000430789
106.32865971944466,0.35270971136159696,36.80905186520278,32.12254835076511
107.32865971944466,0.35279830619900554,37.16180595013372,31.984900105037493
108.32865971944466,0.352885990438161,37.5146481744462,31.848594579345086
109.32865971944466,0.3529727659989094,37.86757762849997,31.713631020382103
110.32865971944466,0.35305863482408373,38.220593404586104,31.5800086097211
111.32865971944466,0.3531435988792901,38.57369459694993,31.44772646421668
112.32865971944466,0.35322766015269413,38.92688030181364,31.316783636413458
113.32865971944466,0.3533108206548094,39.28014961739884,31.187179114953885
114.32865971944466,0.3533930824182858,39.6335016439487,31.05891182498951
115.32865971944466,0.35347444749769963,39.98693548375006,30.93198062859435
116.32865971944466,0.35355491796934385,40.34045024115513,30.806384325178197
117.32865971944466,0.3536344959310201,40.69404502260328,30.68212165190477
118.32865971944466,0.35371318350183134,41.047718936642276,30.55919128410815
119.32865971944466,0.35379098282197535,41.4014710939496,30.437591835713693
120.32865971944466,0.3538678960525393,41.755300607353384,30.317321859658456
121.32865971944466,0.35394392537529573,42.109206591853166,30.198379848314776
122.32865971944466,0.3540190729924988,42.463188164640584,30.080764233913744
123.32865971944466,0.354093341126682,42.817244445119634,29.96447338897142
124.32865971944466,0.3541667320204572,43.17137455492691,29.849505626715462
125.32865971944466,0.3542392479363134,43.5255776179516,29.735859201513456
126.32865971944466,0.35431089115641845,43.8798527603552,29.623532309302167
127.32865971944466,0.3543816639824202,44.234199110591135,29.512523088017986
128.32865971944466,0.35445156873524925,44.5886157994242,29.402829618029063
129.32865971944466,0.35452060775492283,44.94310195994957,29.294449922566695
130.32865971944466,0.3545887834003495,45.29765672761201,29.187381968160516
131.32865971944466,0.35465609804913506,45.65227924022446,29.08162366507167
132.32865971944466,0.35472255409738973,46.0069686379868,28.977172867728225
133.32865971944466,0.35478815395953534,46.3617240635042,28.87402737516239
134.32865971944466,0.35485290006811504,46.71654466180526,28.77218493144543
135.32865971944466,0.3549167948736029,47.07142958036016,28.671643226127134
136.32865971944466,0.3549798408442151,47.42637796909844,28.572399894672618
137.32865971944466,0.355042040465722,47.781388980426634,28.47445251890169
138.32865971944466,0.3551033962412615,48.13646176924574,28.377798627427477
139.32865971944466,0.35516391069115305,48.491595492968486,28.28243569609661
140.32865971944466,0.35522358635271306,48.8467893115365,28.188361148429312
141.32865971944466,0.35528242578007097,49.202042387437054,28.09557235605954
142.32865971944466,0.3553404315439871,49.557353885719984,28.004066639176084
143.32865971944466,0.3553976062316707,49.91272297401403,27.91384126696338
144.32865971944466,0.3554539524465997,50.268148822543345,27.824893458043093
145.32865971944466,0.3555094728083411,50.62363060414362,27.737220380915545
146.32865971944466,0.3555641699523727,50.97916749427805,27.650819154400764
147.32865971944466,0.35561804652990564,51.33475867105322,27.56568684808095
148.32865971944466,0.35567110520770834,51.69040331523472,27.481820482741746
149.32865971944466,0.3557233486679309,52.04610061026257,27.399217030814164
150.32865971944466,0.3557747796079314,52.40184974226662,27.317873416816152
151.32865971944466,0.3558254007401026,52.75764990008158,27.23778651779376
152.32865971944466,0.3558752147916995,53.113500275262,27.158953163763808
153.32865971944466,0.3559242245046688,53.46940006209702,27.08137013815366
154.32865971944466,0.355972432635479,53.82534845762506,27.005034178243154
155.32865971944466,0.3560198419549507,54.18134466164815,26.929941975605555
156.32865971944466,0.3560664552480896,54.537387876746266,26.8560901765474
157.32865971944466,0.3561122753139193,54.893477308291395,26.783475382549074
158.32865971944466,0.3561573049653152,55.24961216446152,26.71209415070476
159.32865971944466,0.35620154702884044,55.60579165625433,26.64194299416119
160.32865971944466,0.35624500434458106,55.962014997500866,26.57301838255754
161.32865971944466,0.35628767976598463,56.31828140487896,26.50531674246277
162.32865971944466,0.3563295761596973,56.67459009792645,26.438834457814945
163.32865971944466,0.3563706964054041,57.030940299054414,26.37356787035695
164.32865971944466,0.3564110433956687,57.38733123356004,26.30951328007488
165.32865971944466,0.3564506200357751,57.74376212963948,26.246666945632924
166.32865971944466,0.3564894292435699,58.100232218400414,26.185025084809613
167.32865971944466,0.3565274739493058,58.456740733874625,26.124583874932323
168.32865971944466,0.3565647570954856,58.81328691303029,26.065339453312255
169.32865971944466,0.35660128163670846,59.16986999578412,26.007287917675693
170.32865971944466,0.35663705053951544,59.52648922501342,25.950425326599056
171.32865971944466,0.35667206678223756,59.88314384656796,25.89474769993825
172.32865971944466,0.35670633335484375,60.239833109281655,25.84025101926177
173.32865971944466,0.35673985325879054,60.59655626498417,25.786931228279105
174.32865971944466,0.3567726295068723,60.95331256851226,25.734784233270418
175.32865971944466,0.3568046651230726,61.31010127772112,25.68380590351487
176.32865971944466,0.3568359631424167,61.66692165349546,25.63399207171724
177.32865971944466,0.35686652661082485,62.02377295976046,25.585338534434438
178.32865971944466,0.3568963585849663,62.38065446349263,25.537841052501122
179.32865971944466,0.356925462132115,62.73756543473043,25.491495351452926
180.32865971944466,0.35695384033000516,63.094505146584865,25.44629712195019
181.32865971944466,0.356981496266689,63.45147287524983,25.402242020200283
182.32865971944466,0.35700843304039487,63.80846790001236,25.35932566837653
183.32865971944466,0.35703465375938587,64.16548950326282,25.317543655040463
184.32865971944466,0.3570601615418201,64.52253697050466,25.276891535558523
185.32865971944466,0.3570849595156114,64.87960959036455,25.23736483252027
186.32865971944466,0.357109050818292,65.23670665460173,25.198959036153695
187.32865971944466,0.357132438596874,65.5938274581178,25.16166960474078
188.32865971944466,0.35715512600771426,65.95097129896612,25.125491965030832
189.32865971944466,0.35717711621637854,66.30813747836092,25.09042151265255
190.32865971944466,0.3571984123975069,66.66532530068653,25.056453612525452
191.32865971944466,0.3572190177346805,67.02253407350655,25.023583599268843
192.32865971944466,0.3572389354202887,67.37976310757239,24.99180677761129
193.32865971944466,0.35725816865539756,67.73701171683233,24.96111842279594
194.32865971944466,0.3572767206496189,68.09427921843995,24.931513780987085
195.32865971944466,0.3572945946209801,68.45156493276268,24.902988069674254
196.32865971944466,0.3573117937957954,68.80886818339008,24.875536478074686
197.32865971944466,0.3573283214085374,69.1661882971422,24.849154167534447
198.32865971944466,0.35734418070171003,69.52352460407751,24.823836271928105
199.32865971944466,0.3573593749257219,69.88087643750097,24.79957789805707
200.32865971944466,0.35737390733876057,70.2382431339719,24.77637412604727
201.32865971944466,0.3573877812066681,70.59562403331158,24.754220009742518
202.32865971944466,0.35740099980281714,70.95301847861091,24.733110577099673
203.32865971944466,0.3574135664079878,71.31042581623794,24.713040830579924
204.32865971944466,0.3574254843102453,71.66784539584509,24.694005747540757
205.32865971944466,0.35743675680481873,72.02527657037642,24.67600028062296
206.32865971944466,0.35744738719398117,72.38271869607487,24.659019358138373
207.32865971944466,0.35745737878692874,72.74017113248895,24.643057884457537
208.32865971944466,0.35746673489966285,73.09763324247997,24.628110740391122
209.32865971944466,0.35747545885487153,73.4551043922284,24.614172783574343
210.32865971944466,0.3574835539818126,73.81258395124085,24.60123884884627
211.32865971944466,0.3574910236161967,74.1700712923564,24.589303748630204
212.32865971944466,0.35749787110007253,74.52756579175285,24.578362273310095
213.32865971944466,0.35750409978171094,74.88506682895344,24.56840919160638
214.32865971944466,0.3575097130154919,75.24257378683255,24.559439250950742
215.32865971944466,0.35751471416179087,75.60008605162197,24.551447177856407
216.32865971944466,0.3575191065868659,75.95760301291689,24.54442767829115
217.32865971944466,0.3575228936627469,76.31512406368164,24.53837543804381
218.32865971944466,0.35752607876712383,76.67264860025533,24.53328512309232
219.32865971944466,0.3575286652832374,77.03017602235768,24.529151379968365
220.32865971944466,0.3575306565997689,77.38770573309422,24.525968836120985
221.32865971944466,0.35753205611073213,77.745237138962,24.523732100278266
222.32865971944466,0.3575328672153655,78.1027696498546,24.522435762805863
223.32865971944466,0.3575330933180249,78.46030267906742,24.522074396066337
224.32865971944466,0.35753273782807704,78.81783564330277,24.522642554774713
225.32865971944466,0.3575318041597947,79.17536796267476,24.52413477635132
226.32865971944466,0.35753029573225076,79.53289906071416,24.526545581276192
227.32865971944466,0.357528215969215,79.89042836437325,24.529869473437945
228.32865971944466,0.35752556829905024,80.2479553040303,24.53410094048274
229.32865971944466,0.3575223561546099,80.60547931349419,24.53923445416075
230.32865971944466,0.3575185829731357,80.96299983000897,24.54526447067151
231.32865971944466,0.35751425219615696,81.32051629425793,24.552185431005576
232.32865971944466,0.3575093672693897,81.67802815036812,24.559991761285964
233.32865971944466,0.35750393164263705,82.0355348459143,24.568677873107198
234.32865971944466,0.3574979487696898,82.39303583192303,24.578238163872566
235.32865971944466,0.35749142210822876,82.75053056287662,24.588667017127896
236.32865971944466,0.3574843551197262,83.10801849671702,24.59995880289578
237.32865971944466,0.35747675126934264,83.46549909469101,24.61210787801719
238.32865971944466,0.357468614025864,83.82297182166397,24.625108586426357
239.32865971944466,0.3574599468615502,84.1804361460883,24.638955259567727
240.32865971944466,0.3574507532520725,84.53789153985666,24.653642216668988
241.32865971944466,0.3574410366764227,84.89533747826592,24.66916376505882
242.32865971944466,0.35743080061681537,85.2527734402425,24.68551420049483
243.32865971944466,0.3574200485585716,85.61019890800515,24.702687807519663
244.32865971944466,0.3574087839900731,85.96761336720664,24.720678859704478
